-1.00E+00,0.24
-1.00E+00,0.24
-1.00E+00,0.264
-9.99E-01,0.248
-9.99E-01,0.268
-9.99E-01,0.276
-9.99E-01,0.284
-9.99E-01,0.276
-9.98E-01,0.284
-9.98E-01,0.28
-9.98E-01,0.276
-9.98E-01,0.28
-9.98E-01,0.26
-9.97E-01,0.24
-9.97E-01,0.228
-9.97E-01,0.224
-9.97E-01,0.204
-9.97E-01,0.18
-9.96E-01,0.184
-9.96E-01,0.148
-9.96E-01,0.128
-9.96E-01,0.112
-9.96E-01,0.092
-9.95E-01,0.068
-9.95E-01,0.068
-9.95E-01,0.044
-9.95E-01,0.016
-9.95E-01,0.008
-9.94E-01,0.016
-9.94E-01,0
-9.94E-01,-0.004
-9.94E-01,-0.004
-9.94E-01,-0.012
-9.93E-01,0
-9.93E-01,0
-9.93E-01,0
-9.93E-01,-0.004
-9.93E-01,-0.004
-9.92E-01,0
-9.92E-01,-0.004
-9.92E-01,-0.016
-9.92E-01,-0.012
-9.92E-01,0.004
-9.91E-01,-0.024
-9.91E-01,-0.016
-9.91E-01,-0.02
-9.91E-01,-0.016
-9.91E-01,-0.016
-9.90E-01,0.016
-9.90E-01,-0.012
-9.90E-01,0.004
-9.90E-01,0
-9.90E-01,0.012
-9.89E-01,0.008
-9.89E-01,0.016
-9.89E-01,-0.004
-9.89E-01,0
-9.89E-01,0.008
-9.88E-01,-0.004
-9.88E-01,-0.004
-9.88E-01,0.016
-9.88E-01,-0.012
-9.88E-01,-0.02
-9.87E-01,-0.008
-9.87E-01,0.008
-9.87E-01,0.008
-9.87E-01,0.012
-9.87E-01,0
-9.86E-01,0.012
-9.86E-01,0
-9.86E-01,0.012
-9.86E-01,-0.004
-9.86E-01,0.008
-9.85E-01,0.024
-9.85E-01,0.04
-9.85E-01,0.036
-9.85E-01,0.048
-9.85E-01,0.052
-9.84E-01,0.056
-9.84E-01,0.072
-9.84E-01,0.064
-9.84E-01,0.068
-9.84E-01,0.064
-9.83E-01,0.072
-9.83E-01,0.072
-9.83E-01,0.076
-9.83E-01,0.068
-9.83E-01,0.076
-9.82E-01,0.092
-9.82E-01,0.092
-9.82E-01,0.1
-9.82E-01,0.096
-9.82E-01,0.108
-9.81E-01,0.12
-9.81E-01,0.108
-9.81E-01,0.132
-9.81E-01,0.136
-9.81E-01,0.156
-9.80E-01,0.152
-9.80E-01,0.16
-9.80E-01,0.14
-9.80E-01,0.156
-9.80E-01,0.164
-9.79E-01,0.14
-9.79E-01,0.132
-9.79E-01,0.116
-9.79E-01,0.108
-9.79E-01,0.116
-9.78E-01,0.092
-9.78E-01,0.072
-9.78E-01,0.076
-9.78E-01,0.076
-9.78E-01,0.048
-9.77E-01,0.06
-9.77E-01,0.052
-9.77E-01,0.036
-9.77E-01,0.044
-9.77E-01,0.032
-9.76E-01,0.04
-9.76E-01,0.036
-9.76E-01,0.044
-9.76E-01,0.032
-9.76E-01,0.024
-9.75E-01,0.012
-9.75E-01,0.02
-9.75E-01,0.028
-9.75E-01,0.008
-9.75E-01,0.016
-9.74E-01,0
-9.74E-01,-0.016
-9.74E-01,-0.016
-9.74E-01,-0.024
-9.74E-01,-0.016
-9.73E-01,-0.04
-9.73E-01,-0.024
-9.73E-01,-0.028
-9.73E-01,-0.028
-9.73E-01,-0.04
-9.72E-01,-0.028
-9.72E-01,-0.024
-9.72E-01,-0.02
-9.72E-01,-0.004
-9.72E-01,-0.016
-9.71E-01,0.016
-9.71E-01,-0.012
-9.71E-01,-0.012
-9.71E-01,0.008
-9.71E-01,0
-9.70E-01,0.024
-9.70E-01,0.016
-9.70E-01,0.04
-9.70E-01,0.056
-9.70E-01,0.016
-9.69E-01,0.024
-9.69E-01,0.016
-9.69E-01,0.012
-9.69E-01,0.02
-9.69E-01,0.016
-9.68E-01,0.016
-9.68E-01,0.044
-9.68E-01,0.032
-9.68E-01,0.032
-9.68E-01,0.048
-9.67E-01,0.072
-9.67E-01,0.052
-9.67E-01,0.052
-9.67E-01,0.072
-9.67E-01,0.056
-9.66E-01,0.06
-9.66E-01,0.084
-9.66E-01,0.064
-9.66E-01,0.08
-9.66E-01,0.08
-9.65E-01,0.096
-9.65E-01,0.104
-9.65E-01,0.128
-9.65E-01,0.124
-9.65E-01,0.12
-9.64E-01,0.132
-9.64E-01,0.152
-9.64E-01,0.144
-9.64E-01,0.156
-9.64E-01,0.152
-9.63E-01,0.148
-9.63E-01,0.144
-9.63E-01,0.148
-9.63E-01,0.12
-9.63E-01,0.108
-9.62E-01,0.112
-9.62E-01,0.096
-9.62E-01,0.076
-9.62E-01,0.088
-9.62E-01,0.088
-9.61E-01,0.092
-9.61E-01,0.092
-9.61E-01,0.08
-9.61E-01,0.08
-9.61E-01,0.08
-9.60E-01,0.06
-9.60E-01,0.056
-9.60E-01,0.052
-9.60E-01,0.044
-9.60E-01,0.04
-9.59E-01,0.044
-9.59E-01,0.012
-9.59E-01,0.016
-9.59E-01,-0.004
-9.59E-01,-0.044
-9.58E-01,-0.032
-9.58E-01,-0.028
-9.58E-01,-0.056
-9.58E-01,-0.06
-9.58E-01,-0.076
-9.57E-01,-0.072
-9.57E-01,-0.092
-9.57E-01,-0.092
-9.57E-01,-0.1
-9.57E-01,-0.124
-9.56E-01,-0.112
-9.56E-01,-0.116
-9.56E-01,-0.136
-9.56E-01,-0.144
-9.56E-01,-0.136
-9.55E-01,-0.148
-9.55E-01,-0.152
-9.55E-01,-0.14
-9.55E-01,-0.164
-9.55E-01,-0.152
-9.54E-01,-0.136
-9.54E-01,-0.136
-9.54E-01,-0.132
-9.54E-01,-0.12
-9.54E-01,-0.132
-9.53E-01,-0.104
-9.53E-01,-0.1
-9.53E-01,-0.092
-9.53E-01,-0.084
-9.53E-01,-0.064
-9.52E-01,-0.056
-9.52E-01,-0.064
-9.52E-01,-0.04
-9.52E-01,-0.028
-9.52E-01,-0.032
-9.51E-01,-0.02
-9.51E-01,-0.028
-9.51E-01,-0.02
-9.51E-01,0
-9.51E-01,0.004
-9.50E-01,0
-9.50E-01,0.032
-9.50E-01,0.04
-9.50E-01,0.044
-9.50E-01,0.064
-9.49E-01,0.068
-9.49E-01,0.052
-9.49E-01,0.064
-9.49E-01,0.08
-9.49E-01,0.08
-9.48E-01,0.068
-9.48E-01,0.092
-9.48E-01,0.08
-9.48E-01,0.084
-9.48E-01,0.096
-9.47E-01,0.072
-9.47E-01,0.076
-9.47E-01,0.092
-9.47E-01,0.108
-9.47E-01,0.092
-9.46E-01,0.108
-9.46E-01,0.116
-9.46E-01,0.112
-9.46E-01,0.104
-9.46E-01,0.096
-9.45E-01,0.076
-9.45E-01,0.088
-9.45E-01,0.072
-9.45E-01,0.072
-9.45E-01,0.056
-9.44E-01,0.064
-9.44E-01,0.06
-9.44E-01,0.064
-9.44E-01,0.06
-9.44E-01,0.044
-9.43E-01,0.056
-9.43E-01,0.052
-9.43E-01,0.028
-9.43E-01,0.032
-9.43E-01,0.028
-9.42E-01,0.024
-9.42E-01,0.008
-9.42E-01,-0.008
-9.42E-01,-0.012
-9.42E-01,-0.028
-9.41E-01,-0.028
-9.41E-01,-0.024
-9.41E-01,-0.016
-9.41E-01,-0.008
-9.41E-01,-0.02
-9.40E-01,-0.024
-9.40E-01,-0.024
-9.40E-01,-0.032
-9.40E-01,-0.032
-9.40E-01,-0.012
-9.39E-01,-0.024
-9.39E-01,-0.028
-9.39E-01,-0.016
-9.39E-01,-0.028
-9.39E-01,-0.032
-9.38E-01,-0.012
-9.38E-01,-0.036
-9.38E-01,-0.016
-9.38E-01,-0.012
-9.38E-01,-0.036
-9.37E-01,-0.028
-9.37E-01,-0.028
-9.37E-01,-0.036
-9.37E-01,-0.04
-9.37E-01,-0.044
-9.36E-01,-0.028
-9.36E-01,-0.044
-9.36E-01,-0.04
-9.36E-01,-0.04
-9.36E-01,-0.06
-9.35E-01,-0.028
-9.35E-01,-0.032
-9.35E-01,-0.044
-9.35E-01,-0.028
-9.35E-01,-0.02
-9.34E-01,0
-9.34E-01,0.012
-9.34E-01,0.032
-9.34E-01,0.052
-9.34E-01,0.056
-9.33E-01,0.072
-9.33E-01,0.072
-9.33E-01,0.08
-9.33E-01,0.108
-9.33E-01,0.112
-9.32E-01,0.112
-9.32E-01,0.128
-9.32E-01,0.12
-9.32E-01,0.124
-9.32E-01,0.12
-9.31E-01,0.112
-9.31E-01,0.104
-9.31E-01,0.096
-9.31E-01,0.104
-9.31E-01,0.112
-9.30E-01,0.112
-9.30E-01,0.096
-9.30E-01,0.092
-9.30E-01,0.092
-9.30E-01,0.096
-9.29E-01,0.084
-9.29E-01,0.092
-9.29E-01,0.084
-9.29E-01,0.088
-9.29E-01,0.088
-9.28E-01,0.08
-9.28E-01,0.072
-9.28E-01,0.06
-9.28E-01,0.052
-9.28E-01,0.052
-9.27E-01,0.044
-9.27E-01,0.052
-9.27E-01,0.044
-9.27E-01,0.012
-9.27E-01,0.016
-9.26E-01,0.02
-9.26E-01,-0.004
-9.26E-01,-0.02
-9.26E-01,-0.016
-9.26E-01,-0.04
-9.25E-01,-0.048
-9.25E-01,-0.072
-9.25E-01,-0.096
-9.25E-01,-0.088
-9.25E-01,-0.088
-9.24E-01,-0.096
-9.24E-01,-0.1
-9.24E-01,-0.116
-9.24E-01,-0.108
-9.24E-01,-0.104
-9.23E-01,-0.1
-9.23E-01,-0.108
-9.23E-01,-0.1
-9.23E-01,-0.1
-9.23E-01,-0.088
-9.22E-01,-0.116
-9.22E-01,-0.108
-9.22E-01,-0.1
-9.22E-01,-0.092
-9.22E-01,-0.088
-9.21E-01,-0.092
-9.21E-01,-0.1
-9.21E-01,-0.088
-9.21E-01,-0.096
-9.21E-01,-0.068
-9.20E-01,-0.064
-9.20E-01,-0.052
-9.20E-01,-0.04
-9.20E-01,-0.008
-9.20E-01,-0.016
-9.19E-01,0
-9.19E-01,0.012
-9.19E-01,0.024
-9.19E-01,0.004
-9.19E-01,0.008
-9.18E-01,0.016
-9.18E-01,0.012
-9.18E-01,0.04
-9.18E-01,0.024
-9.18E-01,0.012
-9.17E-01,0.024
-9.17E-01,0.024
-9.17E-01,0.028
-9.17E-01,0.028
-9.17E-01,0.028
-9.16E-01,0.032
-9.16E-01,0.044
-9.16E-01,0.052
-9.16E-01,0.052
-9.16E-01,0.072
-9.15E-01,0.08
-9.15E-01,0.068
-9.15E-01,0.072
-9.15E-01,0.092
-9.15E-01,0.072
-9.14E-01,0.056
-9.14E-01,0.068
-9.14E-01,0.064
-9.14E-01,0.064
-9.14E-01,0.06
-9.13E-01,0.072
-9.13E-01,0.06
-9.13E-01,0.056
-9.13E-01,0.052
-9.13E-01,0.044
-9.12E-01,0.044
-9.12E-01,0.048
-9.12E-01,0.024
-9.12E-01,0.016
-9.12E-01,0.008
-9.11E-01,-0.004
-9.11E-01,-0.024
-9.11E-01,-0.02
-9.11E-01,-0.036
-9.11E-01,-0.012
-9.10E-01,-0.032
-9.10E-01,-0.052
-9.10E-01,-0.048
-9.10E-01,-0.044
-9.10E-01,-0.064
-9.09E-01,-0.056
-9.09E-01,-0.072
-9.09E-01,-0.048
-9.09E-01,-0.068
-9.09E-01,-0.076
-9.08E-01,-0.088
-9.08E-01,-0.064
-9.08E-01,-0.084
-9.08E-01,-0.088
-9.08E-01,-0.116
-9.07E-01,-0.092
-9.07E-01,-0.092
-9.07E-01,-0.092
-9.07E-01,-0.096
-9.07E-01,-0.088
-9.06E-01,-0.092
-9.06E-01,-0.072
-9.06E-01,-0.068
-9.06E-01,-0.092
-9.06E-01,-0.068
-9.05E-01,-0.056
-9.05E-01,-0.076
-9.05E-01,-0.048
-9.05E-01,-0.056
-9.05E-01,-0.048
-9.04E-01,-0.024
-9.04E-01,-0.012
-9.04E-01,-0.004
-9.04E-01,0.012
-9.04E-01,0.008
-9.03E-01,0.004
-9.03E-01,0.012
-9.03E-01,0.012
-9.03E-01,0.012
-9.03E-01,0.012
-9.02E-01,0.012
-9.02E-01,0
-9.02E-01,0.004
-9.02E-01,0.016
-9.02E-01,0.02
-9.01E-01,0.024
-9.01E-01,0.04
-9.01E-01,0.028
-9.01E-01,0.032
-9.01E-01,0.044
-9.00E-01,0.048
-9.00E-01,0.044
-9.00E-01,0.06
-9.00E-01,0.06
-9.00E-01,0.04
-8.99E-01,0.048
-8.99E-01,0.064
-8.99E-01,0.06
-8.99E-01,0.08
-8.99E-01,0.072
-8.98E-01,0.092
-8.98E-01,0.108
-8.98E-01,0.104
-8.98E-01,0.092
-8.98E-01,0.088
-8.97E-01,0.104
-8.97E-01,0.092
-8.97E-01,0.052
-8.97E-01,0.088
-8.97E-01,0.056
-8.96E-01,0.06
-8.96E-01,0.072
-8.96E-01,0.06
-8.96E-01,0.036
-8.96E-01,0.056
-8.95E-01,0.044
-8.95E-01,0.04
-8.95E-01,0.024
-8.95E-01,0.028
-8.95E-01,0.004
-8.94E-01,-0.004
-8.94E-01,0
-8.94E-01,-0.016
-8.94E-01,-0.032
-8.94E-01,-0.028
-8.93E-01,-0.048
-8.93E-01,-0.064
-8.93E-01,-0.056
-8.93E-01,-0.068
-8.93E-01,-0.052
-8.92E-01,-0.06
-8.92E-01,-0.08
-8.92E-01,-0.06
-8.92E-01,-0.064
-8.92E-01,-0.076
-8.91E-01,-0.064
-8.91E-01,-0.068
-8.91E-01,-0.08
-8.91E-01,-0.052
-8.91E-01,-0.044
-8.90E-01,-0.032
-8.90E-01,-0.02
-8.90E-01,-0.012
-8.90E-01,-0.036
-8.90E-01,-0.008
-8.89E-01,-0.012
-8.89E-01,-0.008
-8.89E-01,0.008
-8.89E-01,0.012
-8.89E-01,-0.004
-8.88E-01,0.016
-8.88E-01,0.008
-8.88E-01,0
-8.88E-01,0.008
-8.88E-01,0.012
-8.87E-01,-0.004
-8.87E-01,0.012
-8.87E-01,0.008
-8.87E-01,0.024
-8.87E-01,0.032
-8.86E-01,0.04
-8.86E-01,0.04
-8.86E-01,0.044
-8.86E-01,0.048
-8.86E-01,0.052
-8.85E-01,0.052
-8.85E-01,0.052
-8.85E-01,0.048
-8.85E-01,0.06
-8.85E-01,0.044
-8.84E-01,0.052
-8.84E-01,0.056
-8.84E-01,0.052
-8.84E-01,0.06
-8.84E-01,0.06
-8.83E-01,0.072
-8.83E-01,0.076
-8.83E-01,0.072
-8.83E-01,0.076
-8.83E-01,0.096
-8.82E-01,0.096
-8.82E-01,0.1
-8.82E-01,0.112
-8.82E-01,0.132
-8.82E-01,0.132
-8.81E-01,0.132
-8.81E-01,0.144
-8.81E-01,0.148
-8.81E-01,0.156
-8.81E-01,0.16
-8.80E-01,0.16
-8.80E-01,0.164
-8.80E-01,0.18
-8.80E-01,0.172
-8.80E-01,0.192
-8.79E-01,0.2
-8.79E-01,0.184
-8.79E-01,0.184
-8.79E-01,0.204
-8.79E-01,0.2
-8.78E-01,0.172
-8.78E-01,0.168
-8.78E-01,0.16
-8.78E-01,0.148
-8.78E-01,0.136
-8.77E-01,0.128
-8.77E-01,0.136
-8.77E-01,0.128
-8.77E-01,0.108
-8.77E-01,0.084
-8.76E-01,0.08
-8.76E-01,0.06
-8.76E-01,0.052
-8.76E-01,0.032
-8.76E-01,0.008
-8.75E-01,-0.016
-8.75E-01,-0.024
-8.75E-01,-0.064
-8.75E-01,-0.068
-8.75E-01,-0.096
-8.74E-01,-0.112
-8.74E-01,-0.124
-8.74E-01,-0.148
-8.74E-01,-0.164
-8.74E-01,-0.184
-8.73E-01,-0.188
-8.73E-01,-0.196
-8.73E-01,-0.212
-8.73E-01,-0.196
-8.73E-01,-0.196
-8.72E-01,-0.204
-8.72E-01,-0.184
-8.72E-01,-0.196
-8.72E-01,-0.188
-8.72E-01,-0.156
-8.71E-01,-0.176
-8.71E-01,-0.156
-8.71E-01,-0.16
-8.71E-01,-0.148
-8.71E-01,-0.136
-8.70E-01,-0.152
-8.70E-01,-0.112
-8.70E-01,-0.128
-8.70E-01,-0.128
-8.70E-01,-0.104
-8.69E-01,-0.096
-8.69E-01,-0.084
-8.69E-01,-0.092
-8.69E-01,-0.08
-8.69E-01,-0.06
-8.68E-01,-0.056
-8.68E-01,-0.048
-8.68E-01,-0.024
-8.68E-01,0
-8.68E-01,-0.02
-8.67E-01,-0.02
-8.67E-01,-0.004
-8.67E-01,0.012
-8.67E-01,0.008
-8.67E-01,0.024
-8.66E-01,0.016
-8.66E-01,0.028
-8.66E-01,0
-8.66E-01,-0.008
-8.66E-01,-0.02
-8.65E-01,-0.02
-8.65E-01,-0.024
-8.65E-01,-0.028
-8.65E-01,-0.032
-8.65E-01,-0.012
-8.64E-01,-0.012
-8.64E-01,-0.004
-8.64E-01,0
-8.64E-01,0.012
-8.64E-01,0
-8.63E-01,0.032
-8.63E-01,0.052
-8.63E-01,0.024
-8.63E-01,0.044
-8.63E-01,0.04
-8.62E-01,0.012
-8.62E-01,0.04
-8.62E-01,0.02
-8.62E-01,0.016
-8.62E-01,0.032
-8.61E-01,0.044
-8.61E-01,0.04
-8.61E-01,0.028
-8.61E-01,0.048
-8.61E-01,0.04
-8.60E-01,0.06
-8.60E-01,0.036
-8.60E-01,0.032
-8.60E-01,0.052
-8.60E-01,0.044
-8.59E-01,0.016
-8.59E-01,0.012
-8.59E-01,0
-8.59E-01,0.004
-8.59E-01,-0.024
-8.58E-01,-0.024
-8.58E-01,-0.028
-8.58E-01,-0.032
-8.58E-01,-0.048
-8.58E-01,-0.048
-8.57E-01,-0.052
-8.57E-01,-0.052
-8.57E-01,-0.08
-8.57E-01,-0.092
-8.57E-01,-0.108
-8.56E-01,-0.108
-8.56E-01,-0.108
-8.56E-01,-0.116
-8.56E-01,-0.124
-8.56E-01,-0.128
-8.55E-01,-0.12
-8.55E-01,-0.128
-8.55E-01,-0.132
-8.55E-01,-0.124
-8.55E-01,-0.128
-8.54E-01,-0.128
-8.54E-01,-0.132
-8.54E-01,-0.148
-8.54E-01,-0.136
-8.54E-01,-0.14
-8.53E-01,-0.156
-8.53E-01,-0.152
-8.53E-01,-0.136
-8.53E-01,-0.128
-8.53E-01,-0.128
-8.52E-01,-0.128
-8.52E-01,-0.124
-8.52E-01,-0.14
-8.52E-01,-0.116
-8.52E-01,-0.12
-8.51E-01,-0.12
-8.51E-01,-0.112
-8.51E-01,-0.08
-8.51E-01,-0.08
-8.51E-01,-0.056
-8.50E-01,-0.056
-8.50E-01,-0.024
-8.50E-01,-0.016
-8.50E-01,0.028
-8.50E-01,0.032
-8.49E-01,0.04
-8.49E-01,0.052
-8.49E-01,0.088
-8.49E-01,0.076
-8.49E-01,0.096
-8.48E-01,0.116
-8.48E-01,0.124
-8.48E-01,0.14
-8.48E-01,0.148
-8.48E-01,0.132
-8.47E-01,0.132
-8.47E-01,0.128
-8.47E-01,0.112
-8.47E-01,0.104
-8.47E-01,0.1
-8.46E-01,0.076
-8.46E-01,0.072
-8.46E-01,0.08
-8.46E-01,0.072
-8.46E-01,0.072
-8.45E-01,0.048
-8.45E-01,0.048
-8.45E-01,0.048
-8.45E-01,0.028
-8.45E-01,0.016
-8.44E-01,-0.012
-8.44E-01,-0.004
-8.44E-01,-0.028
-8.44E-01,-0.048
-8.44E-01,-0.044
-8.43E-01,-0.056
-8.43E-01,-0.052
-8.43E-01,-0.052
-8.43E-01,-0.032
-8.43E-01,-0.04
-8.42E-01,-0.028
-8.42E-01,-0.032
-8.42E-01,-0.044
-8.42E-01,-0.048
-8.42E-01,-0.044
-8.41E-01,-0.088
-8.41E-01,-0.088
-8.41E-01,-0.096
-8.41E-01,-0.096
-8.41E-01,-0.116
-8.40E-01,-0.112
-8.40E-01,-0.116
-8.40E-01,-0.116
-8.40E-01,-0.1
-8.40E-01,-0.136
-8.39E-01,-0.132
-8.39E-01,-0.116
-8.39E-01,-0.108
-8.39E-01,-0.112
-8.39E-01,-0.108
-8.38E-01,-0.116
-8.38E-01,-0.116
-8.38E-01,-0.112
-8.38E-01,-0.124
-8.38E-01,-0.12
-8.37E-01,-0.12
-8.37E-01,-0.116
-8.37E-01,-0.136
-8.37E-01,-0.124
-8.37E-01,-0.132
-8.36E-01,-0.132
-8.36E-01,-0.1
-8.36E-01,-0.096
-8.36E-01,-0.076
-8.36E-01,-0.064
-8.35E-01,-0.052
-8.35E-01,-0.036
-8.35E-01,-0.036
-8.35E-01,-0.036
-8.35E-01,-0.028
-8.34E-01,-0.016
-8.34E-01,-0.024
-8.34E-01,-0.028
-8.34E-01,-0.032
-8.34E-01,-0.036
-8.33E-01,-0.048
-8.33E-01,-0.048
-8.33E-01,-0.056
-8.33E-01,-0.068
-8.33E-01,-0.04
-8.32E-01,-0.036
-8.32E-01,-0.048
-8.32E-01,-0.052
-8.32E-01,-0.028
-8.32E-01,-0.032
-8.31E-01,-0.028
-8.31E-01,-0.028
-8.31E-01,-0.048
-8.31E-01,-0.048
-8.31E-01,-0.052
-8.30E-01,-0.064
-8.30E-01,-0.076
-8.30E-01,-0.076
-8.30E-01,-0.068
-8.30E-01,-0.068
-8.29E-01,-0.064
-8.29E-01,-0.06
-8.29E-01,-0.064
-8.29E-01,-0.06
-8.29E-01,-0.064
-8.28E-01,-0.06
-8.28E-01,-0.064
-8.28E-01,-0.04
-8.28E-01,-0.068
-8.28E-01,-0.06
-8.27E-01,-0.056
-8.27E-01,-0.056
-8.27E-01,-0.064
-8.27E-01,-0.06
-8.27E-01,-0.056
-8.26E-01,-0.072
-8.26E-01,-0.06
-8.26E-01,-0.064
-8.26E-01,-0.06
-8.26E-01,-0.056
-8.25E-01,-0.064
-8.25E-01,-0.08
-8.25E-01,-0.068
-8.25E-01,-0.084
-8.25E-01,-0.068
-8.24E-01,-0.06
-8.24E-01,-0.076
-8.24E-01,-0.088
-8.24E-01,-0.076
-8.24E-01,-0.068
-8.23E-01,-0.084
-8.23E-01,-0.076
-8.23E-01,-0.08
-8.23E-01,-0.076
-8.23E-01,-0.048
-8.22E-01,-0.064
-8.22E-01,-0.052
-8.22E-01,-0.052
-8.22E-01,-0.044
-8.22E-01,-0.06
-8.21E-01,-0.056
-8.21E-01,-0.068
-8.21E-01,-0.052
-8.21E-01,-0.056
-8.21E-01,-0.044
-8.20E-01,-0.068
-8.20E-01,-0.048
-8.20E-01,-0.048
-8.20E-01,-0.076
-8.20E-01,-0.084
-8.19E-01,-0.072
-8.19E-01,-0.084
-8.19E-01,-0.084
-8.19E-01,-0.096
-8.19E-01,-0.108
-8.18E-01,-0.104
-8.18E-01,-0.092
-8.18E-01,-0.096
-8.18E-01,-0.104
-8.18E-01,-0.08
-8.17E-01,-0.072
-8.17E-01,-0.064
-8.17E-01,-0.048
-8.17E-01,-0.06
-8.17E-01,-0.068
-8.16E-01,-0.068
-8.16E-01,-0.056
-8.16E-01,-0.068
-8.16E-01,-0.06
-8.16E-01,-0.056
-8.15E-01,-0.072
-8.15E-01,-0.04
-8.15E-01,-0.028
-8.15E-01,-0.016
-8.15E-01,-0.012
-8.14E-01,-0.004
-8.14E-01,0.016
-8.14E-01,0.02
-8.14E-01,0.028
-8.14E-01,0.044
-8.13E-01,0.032
-8.13E-01,0.064
-8.13E-01,0.06
-8.13E-01,0.048
-8.13E-01,0.06
-8.12E-01,0.048
-8.12E-01,0.052
-8.12E-01,0.044
-8.12E-01,0.044
-8.12E-01,0.032
-8.11E-01,0.02
-8.11E-01,0.02
-8.11E-01,-0.028
-8.11E-01,-0.02
-8.11E-01,-0.032
-8.10E-01,-0.044
-8.10E-01,-0.028
-8.10E-01,-0.048
-8.10E-01,-0.06
-8.10E-01,-0.056
-8.09E-01,-0.056
-8.09E-01,-0.056
-8.09E-01,-0.056
-8.09E-01,-0.032
-8.09E-01,-0.048
-8.08E-01,-0.048
-8.08E-01,-0.02
-8.08E-01,-0.036
-8.08E-01,-0.024
-8.08E-01,-0.04
-8.07E-01,-0.024
-8.07E-01,-0.016
-8.07E-01,-0.016
-8.07E-01,-0.016
-8.07E-01,0
-8.06E-01,0.004
-8.06E-01,0.048
-8.06E-01,0.044
-8.06E-01,0.06
-8.06E-01,0.064
-8.05E-01,0.084
-8.05E-01,0.076
-8.05E-01,0.072
-8.05E-01,0.052
-8.05E-01,0.044
-8.04E-01,0.056
-8.04E-01,0.048
-8.04E-01,0.036
-8.04E-01,0.032
-8.04E-01,0.036
-8.03E-01,0.052
-8.03E-01,0.052
-8.03E-01,0.048
-8.03E-01,0.068
-8.03E-01,0.076
-8.02E-01,0.068
-8.02E-01,0.064
-8.02E-01,0.052
-8.02E-01,0.056
-8.02E-01,0.052
-8.01E-01,0.048
-8.01E-01,0.04
-8.01E-01,0.04
-8.01E-01,0.052
-8.01E-01,0.052
-8.00E-01,0.068
-8.00E-01,0.06
-8.00E-01,0.052
-8.00E-01,0.056
-8.00E-01,0.064
-7.99E-01,0.064
-7.99E-01,0.072
-7.99E-01,0.08
-7.99E-01,0.076
-7.99E-01,0.084
-7.98E-01,0.076
-7.98E-01,0.092
-7.98E-01,0.092
-7.98E-01,0.108
-7.98E-01,0.12
-7.97E-01,0.112
-7.97E-01,0.12
-7.97E-01,0.156
-7.97E-01,0.144
-7.97E-01,0.148
-7.96E-01,0.148
-7.96E-01,0.164
-7.96E-01,0.156
-7.96E-01,0.164
-7.96E-01,0.176
-7.95E-01,0.164
-7.95E-01,0.168
-7.95E-01,0.164
-7.95E-01,0.144
-7.95E-01,0.172
-7.94E-01,0.148
-7.94E-01,0.136
-7.94E-01,0.132
-7.94E-01,0.128
-7.94E-01,0.144
-7.93E-01,0.132
-7.93E-01,0.148
-7.93E-01,0.144
-7.93E-01,0.136
-7.93E-01,0.148
-7.92E-01,0.132
-7.92E-01,0.128
-7.92E-01,0.132
-7.92E-01,0.112
-7.92E-01,0.132
-7.91E-01,0.12
-7.91E-01,0.076
-7.91E-01,0.076
-7.91E-01,0.06
-7.91E-01,0.044
-7.90E-01,0.052
-7.90E-01,0.032
-7.90E-01,-0.004
-7.90E-01,0.004
-7.90E-01,-0.012
-7.89E-01,-0.036
-7.89E-01,-0.044
-7.89E-01,-0.024
-7.89E-01,-0.016
-7.89E-01,-0.028
-7.88E-01,-0.02
-7.88E-01,-0.024
-7.88E-01,-0.012
-7.88E-01,-0.024
-7.88E-01,-0.036
-7.87E-01,-0.036
-7.87E-01,-0.032
-7.87E-01,-0.028
-7.87E-01,-0.028
-7.87E-01,-0.028
-7.86E-01,-0.024
-7.86E-01,-0.02
-7.86E-01,-0.016
-7.86E-01,-0.008
-7.86E-01,0
-7.85E-01,0.016
-7.85E-01,0.036
-7.85E-01,0.032
-7.85E-01,0.056
-7.85E-01,0.044
-7.84E-01,0.068
-7.84E-01,0.072
-7.84E-01,0.088
-7.84E-01,0.1
-7.84E-01,0.128
-7.83E-01,0.144
-7.83E-01,0.148
-7.83E-01,0.164
-7.83E-01,0.16
-7.83E-01,0.168
-7.82E-01,0.176
-7.82E-01,0.18
-7.82E-01,0.184
-7.82E-01,0.184
-7.82E-01,0.188
-7.81E-01,0.192
-7.81E-01,0.196
-7.81E-01,0.2
-7.81E-01,0.216
-7.81E-01,0.216
-7.80E-01,0.212
-7.80E-01,0.212
-7.80E-01,0.2
-7.80E-01,0.188
-7.80E-01,0.192
-7.79E-01,0.18
-7.79E-01,0.156
-7.79E-01,0.184
-7.79E-01,0.164
-7.79E-01,0.16
-7.78E-01,0.148
-7.78E-01,0.136
-7.78E-01,0.128
-7.78E-01,0.12
-7.78E-01,0.092
-7.77E-01,0.096
-7.77E-01,0.08
-7.77E-01,0.06
-7.77E-01,0.028
-7.77E-01,0.044
-7.76E-01,0.004
-7.76E-01,-0.016
-7.76E-01,-0.016
-7.76E-01,-0.056
-7.76E-01,-0.06
-7.75E-01,-0.056
-7.75E-01,-0.076
-7.75E-01,-0.076
-7.75E-01,-0.088
-7.75E-01,-0.088
-7.74E-01,-0.096
-7.74E-01,-0.072
-7.74E-01,-0.072
-7.74E-01,-0.072
-7.74E-01,-0.06
-7.73E-01,-0.072
-7.73E-01,-0.064
-7.73E-01,-0.072
-7.73E-01,-0.048
-7.73E-01,-0.036
-7.72E-01,-0.02
-7.72E-01,-0.032
-7.72E-01,-0.016
-7.72E-01,-0.012
-7.72E-01,-0.012
-7.71E-01,-0.032
-7.71E-01,-0.032
-7.71E-01,-0.016
-7.71E-01,-0.02
-7.71E-01,-0.016
-7.70E-01,-0.004
-7.70E-01,-0.012
-7.70E-01,0
-7.70E-01,0
-7.70E-01,-0.004
-7.69E-01,0.004
-7.69E-01,0.02
-7.69E-01,0.032
-7.69E-01,0.048
-7.69E-01,0.06
-7.68E-01,0.052
-7.68E-01,0.092
-7.68E-01,0.096
-7.68E-01,0.088
-7.68E-01,0.104
-7.67E-01,0.116
-7.67E-01,0.12
-7.67E-01,0.14
-7.67E-01,0.128
-7.67E-01,0.136
-7.66E-01,0.136
-7.66E-01,0.144
-7.66E-01,0.156
-7.66E-01,0.152
-7.66E-01,0.14
-7.65E-01,0.14
-7.65E-01,0.136
-7.65E-01,0.136
-7.65E-01,0.128
-7.65E-01,0.128
-7.64E-01,0.128
-7.64E-01,0.148
-7.64E-01,0.112
-7.64E-01,0.124
-7.64E-01,0.128
-7.63E-01,0.132
-7.63E-01,0.12
-7.63E-01,0.104
-7.63E-01,0.092
-7.63E-01,0.1
-7.62E-01,0.068
-7.62E-01,0.064
-7.62E-01,0.044
-7.62E-01,0.052
-7.62E-01,0.032
-7.61E-01,0.024
-7.61E-01,0.016
-7.61E-01,0.008
-7.61E-01,-0.012
-7.61E-01,0.012
-7.60E-01,-0.02
-7.60E-01,-0.028
-7.60E-01,-0.028
-7.60E-01,-0.012
-7.60E-01,-0.036
-7.59E-01,-0.028
-7.59E-01,-0.024
-7.59E-01,-0.028
-7.59E-01,-0.016
-7.59E-01,-0.02
-7.58E-01,-0.032
-7.58E-01,-0.044
-7.58E-01,-0.044
-7.58E-01,-0.048
-7.58E-01,-0.044
-7.57E-01,-0.032
-7.57E-01,-0.032
-7.57E-01,-0.024
-7.57E-01,-0.016
-7.57E-01,-0.016
-7.56E-01,-0.028
-7.56E-01,-0.02
-7.56E-01,-0.024
-7.56E-01,-0.048
-7.56E-01,-0.012
-7.55E-01,-0.024
-7.55E-01,-0.032
-7.55E-01,-0.02
-7.55E-01,-0.02
-7.55E-01,-0.044
-7.54E-01,-0.012
-7.54E-01,-0.024
-7.54E-01,0
-7.54E-01,0.004
-7.54E-01,0.012
-7.53E-01,0.012
-7.53E-01,-0.008
-7.53E-01,-0.008
-7.53E-01,0
-7.53E-01,0
-7.52E-01,-0.004
-7.52E-01,-0.028
-7.52E-01,-0.012
-7.52E-01,-0.028
-7.52E-01,-0.048
-7.51E-01,-0.044
-7.51E-01,-0.064
-7.51E-01,-0.052
-7.51E-01,-0.056
-7.51E-01,-0.064
-7.50E-01,-0.048
-7.50E-01,-0.052
-7.50E-01,-0.032
-7.50E-01,-0.028
-7.50E-01,-0.028
-7.49E-01,-0.028
-7.49E-01,-0.016
-7.49E-01,-0.012
-7.49E-01,-0.012
-7.49E-01,0
-7.48E-01,-0.012
-7.48E-01,0.008
-7.48E-01,0.028
-7.48E-01,0.024
-7.48E-01,0.028
-7.47E-01,0.028
-7.47E-01,0.024
-7.47E-01,0.02
-7.47E-01,0.044
-7.47E-01,0.028
-7.46E-01,0.028
-7.46E-01,0.032
-7.46E-01,0.056
-7.46E-01,0.04
-7.46E-01,0.052
-7.45E-01,0.06
-7.45E-01,0.06
-7.45E-01,0.06
-7.45E-01,0.056
-7.45E-01,0.04
-7.44E-01,0.06
-7.44E-01,0.06
-7.44E-01,0.056
-7.44E-01,0.044
-7.44E-01,0.052
-7.43E-01,0.044
-7.43E-01,0.048
-7.43E-01,0.036
-7.43E-01,0.028
-7.43E-01,0.02
-7.42E-01,-0.004
-7.42E-01,-0.012
-7.42E-01,0.004
-7.42E-01,-0.012
-7.42E-01,-0.024
-7.41E-01,-0.016
-7.41E-01,-0.028
-7.41E-01,-0.036
-7.41E-01,-0.032
-7.41E-01,-0.048
-7.40E-01,-0.052
-7.40E-01,-0.06
-7.40E-01,-0.06
-7.40E-01,-0.06
-7.40E-01,-0.048
-7.39E-01,-0.056
-7.39E-01,-0.06
-7.39E-01,-0.048
-7.39E-01,-0.044
-7.39E-01,-0.06
-7.38E-01,-0.052
-7.38E-01,-0.056
-7.38E-01,-0.052
-7.38E-01,-0.048
-7.38E-01,-0.056
-7.37E-01,-0.04
-7.37E-01,-0.036
-7.37E-01,-0.012
-7.37E-01,0
-7.37E-01,-0.012
-7.36E-01,0.016
-7.36E-01,0.016
-7.36E-01,0.024
-7.36E-01,0.032
-7.36E-01,0.048
-7.35E-01,0.08
-7.35E-01,0.076
-7.35E-01,0.08
-7.35E-01,0.088
-7.35E-01,0.1
-7.34E-01,0.108
-7.34E-01,0.108
-7.34E-01,0.08
-7.34E-01,0.096
-7.34E-01,0.088
-7.33E-01,0.112
-7.33E-01,0.108
-7.33E-01,0.108
-7.33E-01,0.116
-7.33E-01,0.144
-7.32E-01,0.144
-7.32E-01,0.136
-7.32E-01,0.144
-7.32E-01,0.16
-7.32E-01,0.172
-7.31E-01,0.172
-7.31E-01,0.18
-7.31E-01,0.176
-7.31E-01,0.16
-7.31E-01,0.168
-7.30E-01,0.156
-7.30E-01,0.148
-7.30E-01,0.136
-7.30E-01,0.156
-7.30E-01,0.144
-7.29E-01,0.128
-7.29E-01,0.104
-7.29E-01,0.092
-7.29E-01,0.072
-7.29E-01,0.056
-7.28E-01,0.032
-7.28E-01,0.036
-7.28E-01,0.024
-7.28E-01,0.008
-7.28E-01,-0.004
-7.27E-01,-0.044
-7.27E-01,-0.036
-7.27E-01,-0.02
-7.27E-01,-0.056
-7.27E-01,-0.088
-7.26E-01,-0.064
-7.26E-01,-0.096
-7.26E-01,-0.092
-7.26E-01,-0.112
-7.26E-01,-0.136
-7.25E-01,-0.124
-7.25E-01,-0.16
-7.25E-01,-0.164
-7.25E-01,-0.16
-7.25E-01,-0.156
-7.24E-01,-0.136
-7.24E-01,-0.144
-7.24E-01,-0.144
-7.24E-01,-0.136
-7.24E-01,-0.116
-7.23E-01,-0.104
-7.23E-01,-0.104
-7.23E-01,-0.08
-7.23E-01,-0.064
-7.23E-01,-0.032
-7.22E-01,-0.048
-7.22E-01,-0.032
-7.22E-01,-0.024
-7.22E-01,-0.016
-7.22E-01,0
-7.21E-01,0.016
-7.21E-01,0.024
-7.21E-01,0.056
-7.21E-01,0.068
-7.21E-01,0.072
-7.20E-01,0.064
-7.20E-01,0.088
-7.20E-01,0.092
-7.20E-01,0.088
-7.20E-01,0.088
-7.19E-01,0.1
-7.19E-01,0.084
-7.19E-01,0.108
-7.19E-01,0.064
-7.19E-01,0.06
-7.18E-01,0.048
-7.18E-01,0.048
-7.18E-01,0.024
-7.18E-01,0.012
-7.18E-01,0
-7.17E-01,-0.004
-7.17E-01,-0.004
-7.17E-01,-0.004
-7.17E-01,-0.028
-7.17E-01,-0.016
-7.16E-01,-0.02
-7.16E-01,0
-7.16E-01,0.004
-7.16E-01,0.032
-7.16E-01,0.036
-7.15E-01,0.032
-7.15E-01,0.048
-7.15E-01,0.056
-7.15E-01,0.056
-7.15E-01,0.076
-7.14E-01,0.084
-7.14E-01,0.096
-7.14E-01,0.116
-7.14E-01,0.12
-7.14E-01,0.132
-7.13E-01,0.132
-7.13E-01,0.144
-7.13E-01,0.128
-7.13E-01,0.128
-7.13E-01,0.112
-7.12E-01,0.112
-7.12E-01,0.1
-7.12E-01,0.092
-7.12E-01,0.076
-7.12E-01,0.076
-7.11E-01,0.076
-7.11E-01,0.06
-7.11E-01,0.052
-7.11E-01,0.04
-7.11E-01,0.036
-7.10E-01,0.036
-7.10E-01,0.016
-7.10E-01,0.028
-7.10E-01,0.028
-7.10E-01,0.016
-7.09E-01,-0.012
-7.09E-01,0.008
-7.09E-01,0
-7.09E-01,-0.02
-7.09E-01,-0.028
-7.08E-01,-0.012
-7.08E-01,-0.004
-7.08E-01,-0.012
-7.08E-01,-0.008
-7.08E-01,-0.032
-7.07E-01,-0.012
-7.07E-01,-0.012
-7.07E-01,-0.016
-7.07E-01,-0.024
-7.07E-01,-0.012
-7.06E-01,-0.028
-7.06E-01,-0.02
-7.06E-01,-0.012
-7.06E-01,-0.016
-7.06E-01,-0.04
-7.05E-01,-0.012
-7.05E-01,-0.04
-7.05E-01,-0.048
-7.05E-01,-0.044
-7.05E-01,-0.052
-7.04E-01,-0.052
-7.04E-01,-0.048
-7.04E-01,-0.08
-7.04E-01,-0.072
-7.04E-01,-0.072
-7.03E-01,-0.072
-7.03E-01,-0.092
-7.03E-01,-0.104
-7.03E-01,-0.096
-7.03E-01,-0.108
-7.02E-01,-0.116
-7.02E-01,-0.124
-7.02E-01,-0.128
-7.02E-01,-0.136
-7.02E-01,-0.14
-7.01E-01,-0.152
-7.01E-01,-0.148
-7.01E-01,-0.136
-7.01E-01,-0.108
-7.01E-01,-0.128
-7.00E-01,-0.104
-7.00E-01,-0.108
-7.00E-01,-0.108
-7.00E-01,-0.112
-7.00E-01,-0.12
-6.99E-01,-0.112
-6.99E-01,-0.104
-6.99E-01,-0.12
-6.99E-01,-0.132
-6.99E-01,-0.136
-6.98E-01,-0.132
-6.98E-01,-0.16
-6.98E-01,-0.156
-6.98E-01,-0.176
-6.98E-01,-0.168
-6.97E-01,-0.192
-6.97E-01,-0.188
-6.97E-01,-0.208
-6.97E-01,-0.224
-6.97E-01,-0.228
-6.96E-01,-0.228
-6.96E-01,-0.284
-6.96E-01,-0.276
-6.96E-01,-0.288
-6.96E-01,-0.336
-6.95E-01,-0.336
-6.95E-01,-0.368
-6.95E-01,-0.408
-6.95E-01,-0.428
-6.95E-01,-0.456
-6.94E-01,-0.468
-6.94E-01,-0.48
-6.94E-01,-0.484
-6.94E-01,-0.516
-6.94E-01,-0.528
-6.93E-01,-0.536
-6.93E-01,-0.58
-6.93E-01,-0.584
-6.93E-01,-0.604
-6.93E-01,-0.6
-6.92E-01,-0.624
-6.92E-01,-0.636
-6.92E-01,-0.652
-6.92E-01,-0.64
-6.92E-01,-0.64
-6.91E-01,-0.656
-6.91E-01,-0.656
-6.91E-01,-0.672
-6.91E-01,-0.68
-6.91E-01,-0.68
-6.90E-01,-0.692
-6.90E-01,-0.708
-6.90E-01,-0.688
-6.90E-01,-0.7
-6.90E-01,-0.724
-6.89E-01,-0.716
-6.89E-01,-0.72
-6.89E-01,-0.716
-6.89E-01,-0.736
-6.89E-01,-0.724
-6.88E-01,-0.724
-6.88E-01,-0.708
-6.88E-01,-0.7
-6.88E-01,-0.692
-6.88E-01,-0.684
-6.87E-01,-0.664
-6.87E-01,-0.652
-6.87E-01,-0.632
-6.87E-01,-0.608
-6.87E-01,-0.596
-6.86E-01,-0.596
-6.86E-01,-0.576
-6.86E-01,-0.572
-6.86E-01,-0.592
-6.86E-01,-0.576
-6.85E-01,-0.564
-6.85E-01,-0.584
-6.85E-01,-0.568
-6.85E-01,-0.564
-6.85E-01,-0.58
-6.84E-01,-0.56
-6.84E-01,-0.564
-6.84E-01,-0.564
-6.84E-01,-0.548
-6.84E-01,-0.556
-6.83E-01,-0.564
-6.83E-01,-0.552
-6.83E-01,-0.548
-6.83E-01,-0.536
-6.83E-01,-0.532
-6.82E-01,-0.512
-6.82E-01,-0.516
-6.82E-01,-0.496
-6.82E-01,-0.492
-6.82E-01,-0.5
-6.81E-01,-0.472
-6.81E-01,-0.476
-6.81E-01,-0.452
-6.81E-01,-0.444
-6.81E-01,-0.42
-6.80E-01,-0.404
-6.80E-01,-0.396
-6.80E-01,-0.4
-6.80E-01,-0.38
-6.80E-01,-0.372
-6.79E-01,-0.376
-6.79E-01,-0.36
-6.79E-01,-0.36
-6.79E-01,-0.352
-6.79E-01,-0.36
-6.78E-01,-0.356
-6.78E-01,-0.36
-6.78E-01,-0.364
-6.78E-01,-0.36
-6.78E-01,-0.352
-6.77E-01,-0.34
-6.77E-01,-0.344
-6.77E-01,-0.316
-6.77E-01,-0.312
-6.77E-01,-0.316
-6.76E-01,-0.292
-6.76E-01,-0.268
-6.76E-01,-0.272
-6.76E-01,-0.256
-6.76E-01,-0.252
-6.75E-01,-0.24
-6.75E-01,-0.236
-6.75E-01,-0.224
-6.75E-01,-0.244
-6.75E-01,-0.216
-6.74E-01,-0.2
-6.74E-01,-0.232
-6.74E-01,-0.232
-6.74E-01,-0.204
-6.74E-01,-0.208
-6.73E-01,-0.192
-6.73E-01,-0.188
-6.73E-01,-0.176
-6.73E-01,-0.184
-6.73E-01,-0.168
-6.72E-01,-0.16
-6.72E-01,-0.14
-6.72E-01,-0.136
-6.72E-01,-0.136
-6.72E-01,-0.14
-6.71E-01,-0.108
-6.71E-01,-0.108
-6.71E-01,-0.104
-6.71E-01,-0.08
-6.71E-01,-0.072
-6.70E-01,-0.044
-6.70E-01,-0.036
-6.70E-01,-0.016
-6.70E-01,-0.004
-6.70E-01,0.016
-6.69E-01,0.028
-6.69E-01,0.036
-6.69E-01,0.044
-6.69E-01,0.076
-6.69E-01,0.088
-6.68E-01,0.116
-6.68E-01,0.152
-6.68E-01,0.184
-6.68E-01,0.2
-6.68E-01,0.244
-6.67E-01,0.28
-6.67E-01,0.316
-6.67E-01,0.32
-6.67E-01,0.352
-6.67E-01,0.376
-6.66E-01,0.4
-6.66E-01,0.42
-6.66E-01,0.416
-6.66E-01,0.436
-6.66E-01,0.444
-6.65E-01,0.452
-6.65E-01,0.456
-6.65E-01,0.452
-6.65E-01,0.468
-6.65E-01,0.464
-6.64E-01,0.472
-6.64E-01,0.472
-6.64E-01,0.484
-6.64E-01,0.492
-6.64E-01,0.492
-6.63E-01,0.472
-6.63E-01,0.492
-6.63E-01,0.476
-6.63E-01,0.468
-6.63E-01,0.468
-6.62E-01,0.456
-6.62E-01,0.424
-6.62E-01,0.388
-6.62E-01,0.376
-6.62E-01,0.364
-6.61E-01,0.348
-6.61E-01,0.332
-6.61E-01,0.3
-6.61E-01,0.3
-6.61E-01,0.312
-6.60E-01,0.284
-6.60E-01,0.292
-6.60E-01,0.288
-6.60E-01,0.288
-6.60E-01,0.28
-6.59E-01,0.284
-6.59E-01,0.284
-6.59E-01,0.292
-6.59E-01,0.308
-6.59E-01,0.304
-6.58E-01,0.304
-6.58E-01,0.308
-6.58E-01,0.328
-6.58E-01,0.332
-6.58E-01,0.328
-6.57E-01,0.324
-6.57E-01,0.344
-6.57E-01,0.344
-6.57E-01,0.36
-6.57E-01,0.34
-6.56E-01,0.364
-6.56E-01,0.356
-6.56E-01,0.368
-6.56E-01,0.376
-6.56E-01,0.392
-6.55E-01,0.396
-6.55E-01,0.42
-6.55E-01,0.416
-6.55E-01,0.432
-6.55E-01,0.436
-6.54E-01,0.452
-6.54E-01,0.44
-6.54E-01,0.468
-6.54E-01,0.48
-6.54E-01,0.492
-6.53E-01,0.516
-6.53E-01,0.52
-6.53E-01,0.532
-6.53E-01,0.552
-6.53E-01,0.548
-6.52E-01,0.572
-6.52E-01,0.564
-6.52E-01,0.608
-6.52E-01,0.616
-6.52E-01,0.636
-6.51E-01,0.664
-6.51E-01,0.68
-6.51E-01,0.68
-6.51E-01,0.724
-6.51E-01,0.712
-6.50E-01,0.724
-6.50E-01,0.752
-6.50E-01,0.76
-6.50E-01,0.756
-6.50E-01,0.744
-6.49E-01,0.756
-6.49E-01,0.752
-6.49E-01,0.764
-6.49E-01,0.768
-6.49E-01,0.76
-6.48E-01,0.752
-6.48E-01,0.756
-6.48E-01,0.756
-6.48E-01,0.728
-6.48E-01,0.728
-6.47E-01,0.708
-6.47E-01,0.696
-6.47E-01,0.688
-6.47E-01,0.672
-6.47E-01,0.648
-6.46E-01,0.648
-6.46E-01,0.652
-6.46E-01,0.632
-6.46E-01,0.62
-6.46E-01,0.604
-6.45E-01,0.588
-6.45E-01,0.556
-6.45E-01,0.528
-6.45E-01,0.48
-6.45E-01,0.452
-6.44E-01,0.44
-6.44E-01,0.408
-6.44E-01,0.376
-6.44E-01,0.348
-6.44E-01,0.32
-6.43E-01,0.316
-6.43E-01,0.28
-6.43E-01,0.26
-6.43E-01,0.236
-6.43E-01,0.228
-6.42E-01,0.216
-6.42E-01,0.208
-6.42E-01,0.196
-6.42E-01,0.18
-6.42E-01,0.172
-6.41E-01,0.164
-6.41E-01,0.14
-6.41E-01,0.136
-6.41E-01,0.132
-6.41E-01,0.096
-6.40E-01,0.092
-6.40E-01,0.08
-6.40E-01,0.052
-6.40E-01,0.068
-6.40E-01,0.048
-6.39E-01,0.012
-6.39E-01,0.016
-6.39E-01,0.004
-6.39E-01,-0.004
-6.39E-01,-0.008
-6.38E-01,-0.004
-6.38E-01,-0.008
-6.38E-01,0
-6.38E-01,-0.016
-6.38E-01,-0.02
-6.37E-01,-0.012
-6.37E-01,0.004
-6.37E-01,-0.004
-6.37E-01,0.016
-6.37E-01,0.012
-6.36E-01,0.012
-6.36E-01,0.008
-6.36E-01,0.016
-6.36E-01,0.004
-6.36E-01,-0.012
-6.35E-01,0.008
-6.35E-01,0.008
-6.35E-01,0
-6.35E-01,0.012
-6.35E-01,0.012
-6.34E-01,-0.004
-6.34E-01,0.016
-6.34E-01,0.012
-6.34E-01,0.024
-6.34E-01,0.056
-6.33E-01,0.076
-6.33E-01,0.072
-6.33E-01,0.084
-6.33E-01,0.104
-6.33E-01,0.108
-6.32E-01,0.128
-6.32E-01,0.144
-6.32E-01,0.136
-6.32E-01,0.164
-6.32E-01,0.152
-6.31E-01,0.192
-6.31E-01,0.164
-6.31E-01,0.164
-6.31E-01,0.192
-6.31E-01,0.176
-6.30E-01,0.172
-6.30E-01,0.192
-6.30E-01,0.16
-6.30E-01,0.168
-6.30E-01,0.168
-6.29E-01,0.148
-6.29E-01,0.144
-6.29E-01,0.136
-6.29E-01,0.128
-6.29E-01,0.104
-6.28E-01,0.088
-6.28E-01,0.084
-6.28E-01,0.064
-6.28E-01,0.072
-6.28E-01,0.056
-6.27E-01,0.028
-6.27E-01,0.024
-6.27E-01,0.028
-6.27E-01,0
-6.27E-01,-0.012
-6.26E-01,-0.028
-6.26E-01,-0.052
-6.26E-01,-0.076
-6.26E-01,-0.104
-6.26E-01,-0.112
-6.25E-01,-0.128
-6.25E-01,-0.144
-6.25E-01,-0.156
-6.25E-01,-0.172
-6.25E-01,-0.176
-6.24E-01,-0.172
-6.24E-01,-0.188
-6.24E-01,-0.204
-6.24E-01,-0.2
-6.24E-01,-0.2
-6.23E-01,-0.192
-6.23E-01,-0.196
-6.23E-01,-0.184
-6.23E-01,-0.184
-6.23E-01,-0.164
-6.22E-01,-0.164
-6.22E-01,-0.176
-6.22E-01,-0.172
-6.22E-01,-0.16
-6.22E-01,-0.164
-6.21E-01,-0.176
-6.21E-01,-0.16
-6.21E-01,-0.14
-6.21E-01,-0.16
-6.21E-01,-0.148
-6.20E-01,-0.14
-6.20E-01,-0.136
-6.20E-01,-0.136
-6.20E-01,-0.128
-6.20E-01,-0.132
-6.19E-01,-0.12
-6.19E-01,-0.112
-6.19E-01,-0.112
-6.19E-01,-0.12
-6.19E-01,-0.1
-6.18E-01,-0.092
-6.18E-01,-0.084
-6.18E-01,-0.052
-6.18E-01,-0.048
-6.18E-01,-0.056
-6.17E-01,-0.028
-6.17E-01,-0.032
-6.17E-01,-0.008
-6.17E-01,-0.008
-6.17E-01,-0.004
-6.16E-01,-0.008
-6.16E-01,0
-6.16E-01,0.008
-6.16E-01,0.012
-6.16E-01,0.012
-6.15E-01,0.012
-6.15E-01,0.028
-6.15E-01,0.004
-6.15E-01,0.028
-6.15E-01,0.028
-6.14E-01,0.032
-6.14E-01,0.024
-6.14E-01,0.024
-6.14E-01,0.004
-6.14E-01,0
-6.13E-01,-0.004
-6.13E-01,0
-6.13E-01,0.004
-6.13E-01,0.012
-6.13E-01,0
-6.12E-01,0.024
-6.12E-01,0.02
-6.12E-01,0.012
-6.12E-01,0
-6.12E-01,0.004
-6.11E-01,-0.004
-6.11E-01,-0.004
-6.11E-01,-0.024
-6.11E-01,-0.012
-6.11E-01,-0.048
-6.10E-01,-0.04
-6.10E-01,-0.072
-6.10E-01,-0.052
-6.10E-01,-0.064
-6.10E-01,-0.048
-6.09E-01,-0.06
-6.09E-01,-0.056
-6.09E-01,-0.076
-6.09E-01,-0.076
-6.09E-01,-0.064
-6.08E-01,-0.08
-6.08E-01,-0.088
-6.08E-01,-0.072
-6.08E-01,-0.076
-6.08E-01,-0.092
-6.07E-01,-0.088
-6.07E-01,-0.112
-6.07E-01,-0.124
-6.07E-01,-0.132
-6.07E-01,-0.144
-6.06E-01,-0.136
-6.06E-01,-0.148
-6.06E-01,-0.144
-6.06E-01,-0.156
-6.06E-01,-0.144
-6.05E-01,-0.152
-6.05E-01,-0.144
-6.05E-01,-0.144
-6.05E-01,-0.14
-6.05E-01,-0.136
-6.04E-01,-0.128
-6.04E-01,-0.14
-6.04E-01,-0.136
-6.04E-01,-0.128
-6.04E-01,-0.108
-6.03E-01,-0.108
-6.03E-01,-0.116
-6.03E-01,-0.088
-6.03E-01,-0.08
-6.03E-01,-0.06
-6.02E-01,-0.04
-6.02E-01,-0.024
-6.02E-01,-0.012
-6.02E-01,0.008
-6.02E-01,0
-6.01E-01,0.032
-6.01E-01,0.04
-6.01E-01,0.032
-6.01E-01,0.064
-6.01E-01,0.068
-6.00E-01,0.052
-6.00E-01,0.06
-6.00E-01,0.052
-6.00E-01,0.068
-6.00E-01,0.048
-5.99E-01,0.04
-5.99E-01,0.08
-5.99E-01,0.068
-5.99E-01,0.088
-5.99E-01,0.08
-5.98E-01,0.076
-5.98E-01,0.076
-5.98E-01,0.084
-5.98E-01,0.072
-5.98E-01,0.036
-5.97E-01,0.016
-5.97E-01,0.008
-5.97E-01,-0.012
-5.97E-01,-0.016
-5.97E-01,-0.02
-5.96E-01,-0.036
-5.96E-01,-0.02
-5.96E-01,-0.02
-5.96E-01,-0.04
-5.96E-01,-0.02
-5.95E-01,-0.028
-5.95E-01,-0.052
-5.95E-01,-0.076
-5.95E-01,-0.072
-5.95E-01,-0.108
-5.94E-01,-0.092
-5.94E-01,-0.088
-5.94E-01,-0.1
-5.94E-01,-0.1
-5.94E-01,-0.112
-5.93E-01,-0.12
-5.93E-01,-0.116
-5.93E-01,-0.116
-5.93E-01,-0.124
-5.93E-01,-0.096
-5.92E-01,-0.092
-5.92E-01,-0.108
-5.92E-01,-0.08
-5.92E-01,-0.076
-5.92E-01,-0.092
-5.91E-01,-0.088
-5.91E-01,-0.076
-5.91E-01,-0.072
-5.91E-01,-0.064
-5.91E-01,-0.068
-5.90E-01,-0.072
-5.90E-01,-0.056
-5.90E-01,-0.056
-5.90E-01,-0.06
-5.90E-01,-0.06
-5.89E-01,-0.064
-5.89E-01,-0.072
-5.89E-01,-0.072
-5.89E-01,-0.08
-5.89E-01,-0.092
-5.88E-01,-0.092
-5.88E-01,-0.088
-5.88E-01,-0.088
-5.88E-01,-0.104
-5.88E-01,-0.1
-5.87E-01,-0.116
-5.87E-01,-0.12
-5.87E-01,-0.108
-5.87E-01,-0.112
-5.87E-01,-0.112
-5.86E-01,-0.092
-5.86E-01,-0.096
-5.86E-01,-0.08
-5.86E-01,-0.072
-5.86E-01,-0.06
-5.85E-01,-0.068
-5.85E-01,-0.076
-5.85E-01,-0.084
-5.85E-01,-0.084
-5.85E-01,-0.076
-5.84E-01,-0.08
-5.84E-01,-0.088
-5.84E-01,-0.096
-5.84E-01,-0.1
-5.84E-01,-0.1
-5.83E-01,-0.088
-5.83E-01,-0.06
-5.83E-01,-0.096
-5.83E-01,-0.08
-5.83E-01,-0.068
-5.82E-01,-0.056
-5.82E-01,-0.068
-5.82E-01,-0.06
-5.82E-01,-0.032
-5.82E-01,-0.048
-5.81E-01,-0.044
-5.81E-01,-0.044
-5.81E-01,-0.048
-5.81E-01,-0.028
-5.81E-01,-0.04
-5.80E-01,-0.016
-5.80E-01,0
-5.80E-01,0.008
-5.80E-01,0.032
-5.80E-01,0.04
-5.79E-01,0.064
-5.79E-01,0.064
-5.79E-01,0.064
-5.79E-01,0.088
-5.79E-01,0.052
-5.78E-01,0.056
-5.78E-01,0.052
-5.78E-01,0.044
-5.78E-01,0.024
-5.78E-01,0.044
-5.77E-01,0.032
-5.77E-01,0.032
-5.77E-01,0.028
-5.77E-01,0.012
-5.77E-01,-0.008
-5.76E-01,0.004
-5.76E-01,0.004
-5.76E-01,-0.008
-5.76E-01,-0.008
-5.76E-01,-0.016
-5.75E-01,-0.024
-5.75E-01,-0.012
-5.75E-01,-0.044
-5.75E-01,-0.068
-5.75E-01,-0.056
-5.74E-01,-0.056
-5.74E-01,-0.072
-5.74E-01,-0.088
-5.74E-01,-0.092
-5.74E-01,-0.096
-5.73E-01,-0.096
-5.73E-01,-0.116
-5.73E-01,-0.12
-5.73E-01,-0.132
-5.73E-01,-0.12
-5.72E-01,-0.124
-5.72E-01,-0.116
-5.72E-01,-0.092
-5.72E-01,-0.096
-5.72E-01,-0.088
-5.71E-01,-0.104
-5.71E-01,-0.108
-5.71E-01,-0.076
-5.71E-01,-0.076
-5.71E-01,-0.092
-5.70E-01,-0.104
-5.70E-01,-0.092
-5.70E-01,-0.092
-5.70E-01,-0.076
-5.70E-01,-0.08
-5.69E-01,-0.092
-5.69E-01,-0.08
-5.69E-01,-0.064
-5.69E-01,-0.056
-5.69E-01,-0.068
-5.68E-01,-0.028
-5.68E-01,-0.036
-5.68E-01,-0.012
-5.68E-01,0.004
-5.68E-01,0.024
-5.67E-01,0.028
-5.67E-01,0.044
-5.67E-01,0.036
-5.67E-01,0.044
-5.67E-01,0.06
-5.66E-01,0.056
-5.66E-01,0.056
-5.66E-01,0.056
-5.66E-01,0.052
-5.66E-01,0.036
-5.65E-01,0.012
-5.65E-01,0.04
-5.65E-01,0
-5.65E-01,-0.012
-5.65E-01,-0.028
-5.64E-01,-0.012
-5.64E-01,-0.028
-5.64E-01,-0.028
-5.64E-01,-0.048
-5.64E-01,-0.036
-5.63E-01,-0.056
-5.63E-01,-0.044
-5.63E-01,-0.064
-5.63E-01,-0.044
-5.63E-01,-0.04
-5.62E-01,-0.036
-5.62E-01,-0.036
-5.62E-01,-0.036
-5.62E-01,-0.036
-5.62E-01,-0.056
-5.61E-01,-0.056
-5.61E-01,-0.076
-5.61E-01,-0.068
-5.61E-01,-0.06
-5.61E-01,-0.088
-5.60E-01,-0.116
-5.60E-01,-0.136
-5.60E-01,-0.156
-5.60E-01,-0.156
-5.60E-01,-0.168
-5.59E-01,-0.18
-5.59E-01,-0.18
-5.59E-01,-0.184
-5.59E-01,-0.204
-5.59E-01,-0.192
-5.58E-01,-0.212
-5.58E-01,-0.22
-5.58E-01,-0.22
-5.58E-01,-0.224
-5.58E-01,-0.228
-5.57E-01,-0.244
-5.57E-01,-0.232
-5.57E-01,-0.252
-5.57E-01,-0.244
-5.57E-01,-0.256
-5.56E-01,-0.268
-5.56E-01,-0.248
-5.56E-01,-0.244
-5.56E-01,-0.256
-5.56E-01,-0.244
-5.55E-01,-0.232
-5.55E-01,-0.22
-5.55E-01,-0.212
-5.55E-01,-0.224
-5.55E-01,-0.22
-5.54E-01,-0.216
-5.54E-01,-0.196
-5.54E-01,-0.188
-5.54E-01,-0.196
-5.54E-01,-0.164
-5.53E-01,-0.16
-5.53E-01,-0.144
-5.53E-01,-0.128
-5.53E-01,-0.112
-5.53E-01,-0.108
-5.52E-01,-0.072
-5.52E-01,-0.08
-5.52E-01,-0.048
-5.52E-01,-0.02
-5.52E-01,-0.008
-5.51E-01,-0.004
-5.51E-01,0.012
-5.51E-01,0.024
-5.51E-01,0.04
-5.51E-01,0.048
-5.50E-01,0.072
-5.50E-01,0.06
-5.50E-01,0.076
-5.50E-01,0.104
-5.50E-01,0.096
-5.49E-01,0.096
-5.49E-01,0.112
-5.49E-01,0.1
-5.49E-01,0.104
-5.49E-01,0.108
-5.48E-01,0.112
-5.48E-01,0.1
-5.48E-01,0.108
-5.48E-01,0.116
-5.48E-01,0.092
-5.47E-01,0.092
-5.47E-01,0.104
-5.47E-01,0.096
-5.47E-01,0.076
-5.47E-01,0.084
-5.46E-01,0.084
-5.46E-01,0.068
-5.46E-01,0.072
-5.46E-01,0.064
-5.46E-01,0.06
-5.45E-01,0.076
-5.45E-01,0.064
-5.45E-01,0.036
-5.45E-01,0.048
-5.45E-01,0.044
-5.44E-01,0.028
-5.44E-01,0.04
-5.44E-01,0.028
-5.44E-01,0.012
-5.44E-01,0.012
-5.43E-01,0.016
-5.43E-01,-0.012
-5.43E-01,-0.012
-5.43E-01,-0.028
-5.43E-01,-0.02
-5.42E-01,-0.028
-5.42E-01,-0.048
-5.42E-01,-0.056
-5.42E-01,-0.076
-5.42E-01,-0.092
-5.41E-01,-0.096
-5.41E-01,-0.108
-5.41E-01,-0.108
-5.41E-01,-0.12
-5.41E-01,-0.12
-5.40E-01,-0.128
-5.40E-01,-0.124
-5.40E-01,-0.152
-5.40E-01,-0.144
-5.40E-01,-0.152
-5.39E-01,-0.176
-5.39E-01,-0.184
-5.39E-01,-0.192
-5.39E-01,-0.184
-5.39E-01,-0.184
-5.38E-01,-0.204
-5.38E-01,-0.204
-5.38E-01,-0.204
-5.38E-01,-0.22
-5.38E-01,-0.22
-5.37E-01,-0.216
-5.37E-01,-0.22
-5.37E-01,-0.22
-5.37E-01,-0.2
-5.37E-01,-0.188
-5.36E-01,-0.184
-5.36E-01,-0.152
-5.36E-01,-0.156
-5.36E-01,-0.152
-5.36E-01,-0.132
-5.35E-01,-0.112
-5.35E-01,-0.112
-5.35E-01,-0.088
-5.35E-01,-0.088
-5.35E-01,-0.052
-5.34E-01,-0.056
-5.34E-01,-0.044
-5.34E-01,-0.044
-5.34E-01,-0.02
-5.34E-01,-0.012
-5.33E-01,-0.008
-5.33E-01,0.008
-5.33E-01,0.012
-5.33E-01,0.008
-5.33E-01,0.012
-5.32E-01,0.008
-5.32E-01,0.016
-5.32E-01,-0.012
-5.32E-01,0.012
-5.32E-01,0.028
-5.31E-01,0.016
-5.31E-01,0.012
-5.31E-01,0.024
-5.31E-01,0.016
-5.31E-01,0.032
-5.30E-01,0.04
-5.30E-01,0.036
-5.30E-01,0.048
-5.30E-01,0.076
-5.30E-01,0.072
-5.29E-01,0.056
-5.29E-01,0.048
-5.29E-01,0.072
-5.29E-01,0.068
-5.29E-01,0.076
-5.28E-01,0.076
-5.28E-01,0.072
-5.28E-01,0.076
-5.28E-01,0.072
-5.28E-01,0.044
-5.27E-01,0.052
-5.27E-01,0.032
-5.27E-01,0.012
-5.27E-01,0.04
-5.27E-01,0.024
-5.26E-01,0.008
-5.26E-01,0.016
-5.26E-01,-0.004
-5.26E-01,-0.02
-5.26E-01,-0.028
-5.25E-01,-0.044
-5.25E-01,-0.048
-5.25E-01,-0.068
-5.25E-01,-0.06
-5.25E-01,-0.084
-5.24E-01,-0.072
-5.24E-01,-0.084
-5.24E-01,-0.116
-5.24E-01,-0.104
-5.24E-01,-0.108
-5.23E-01,-0.12
-5.23E-01,-0.112
-5.23E-01,-0.136
-5.23E-01,-0.14
-5.23E-01,-0.14
-5.22E-01,-0.14
-5.22E-01,-0.14
-5.22E-01,-0.136
-5.22E-01,-0.14
-5.22E-01,-0.132
-5.21E-01,-0.124
-5.21E-01,-0.124
-5.21E-01,-0.124
-5.21E-01,-0.104
-5.21E-01,-0.096
-5.20E-01,-0.1
-5.20E-01,-0.084
-5.20E-01,-0.092
-5.20E-01,-0.092
-5.20E-01,-0.088
-5.19E-01,-0.076
-5.19E-01,-0.104
-5.19E-01,-0.096
-5.19E-01,-0.108
-5.19E-01,-0.104
-5.18E-01,-0.108
-5.18E-01,-0.088
-5.18E-01,-0.088
-5.18E-01,-0.076
-5.18E-01,-0.072
-5.17E-01,-0.056
-5.17E-01,-0.056
-5.17E-01,-0.06
-5.17E-01,-0.052
-5.17E-01,-0.048
-5.16E-01,-0.032
-5.16E-01,-0.04
-5.16E-01,-0.032
-5.16E-01,-0.048
-5.16E-01,-0.02
-5.15E-01,-0.032
-5.15E-01,-0.02
-5.15E-01,-0.012
-5.15E-01,-0.024
-5.15E-01,0
-5.14E-01,-0.004
-5.14E-01,0.012
-5.14E-01,-0.004
-5.14E-01,-0.004
-5.14E-01,0.004
-5.13E-01,0.008
-5.13E-01,0.004
-5.13E-01,0
-5.13E-01,-0.004
-5.13E-01,0
-5.12E-01,0
-5.12E-01,-0.016
-5.12E-01,-0.036
-5.12E-01,-0.024
-5.12E-01,-0.028
-5.11E-01,-0.06
-5.11E-01,-0.04
-5.11E-01,-0.06
-5.11E-01,-0.044
-5.11E-01,-0.052
-5.10E-01,-0.068
-5.10E-01,-0.06
-5.10E-01,-0.04
-5.10E-01,-0.064
-5.10E-01,-0.048
-5.09E-01,-0.056
-5.09E-01,-0.072
-5.09E-01,-0.076
-5.09E-01,-0.088
-5.09E-01,-0.104
-5.08E-01,-0.104
-5.08E-01,-0.108
-5.08E-01,-0.12
-5.08E-01,-0.124
-5.08E-01,-0.128
-5.07E-01,-0.16
-5.07E-01,-0.156
-5.07E-01,-0.18
-5.07E-01,-0.184
-5.07E-01,-0.188
-5.06E-01,-0.18
-5.06E-01,-0.184
-5.06E-01,-0.204
-5.06E-01,-0.192
-5.06E-01,-0.204
-5.05E-01,-0.204
-5.05E-01,-0.184
-5.05E-01,-0.188
-5.05E-01,-0.188
-5.05E-01,-0.172
-5.04E-01,-0.16
-5.04E-01,-0.168
-5.04E-01,-0.16
-5.04E-01,-0.152
-5.04E-01,-0.152
-5.03E-01,-0.136
-5.03E-01,-0.128
-5.03E-01,-0.136
-5.03E-01,-0.108
-5.03E-01,-0.108
-5.02E-01,-0.116
-5.02E-01,-0.112
-5.02E-01,-0.104
-5.02E-01,-0.108
-5.02E-01,-0.088
-5.01E-01,-0.076
-5.01E-01,-0.08
-5.01E-01,-0.056
-5.01E-01,-0.028
-5.01E-01,-0.016
-5.00E-01,-0.024
-5.00E-01,0.02
-5.00E-01,0.02
-5.00E-01,0.02
-5.00E-01,0.02
-4.99E-01,0.024
-4.99E-01,0.036
-4.99E-01,0.028
-4.99E-01,0.036
-4.99E-01,0.032
-4.98E-01,0.032
-4.98E-01,0.04
-4.98E-01,0.036
-4.98E-01,0.04
-4.98E-01,0.032
-4.97E-01,0.024
-4.97E-01,0.012
-4.97E-01,0.04
-4.97E-01,0.024
-4.97E-01,0.012
-4.96E-01,0.02
-4.96E-01,0.024
-4.96E-01,0
-4.96E-01,-0.004
-4.96E-01,-0.016
-4.95E-01,-0.032
-4.95E-01,-0.008
-4.95E-01,-0.048
-4.95E-01,-0.044
-4.95E-01,-0.072
-4.94E-01,-0.064
-4.94E-01,-0.084
-4.94E-01,-0.1
-4.94E-01,-0.116
-4.94E-01,-0.128
-4.93E-01,-0.112
-4.93E-01,-0.108
-4.93E-01,-0.144
-4.93E-01,-0.132
-4.93E-01,-0.136
-4.92E-01,-0.128
-4.92E-01,-0.148
-4.92E-01,-0.132
-4.92E-01,-0.124
-4.92E-01,-0.132
-4.91E-01,-0.136
-4.91E-01,-0.132
-4.91E-01,-0.14
-4.91E-01,-0.152
-4.91E-01,-0.16
-4.90E-01,-0.18
-4.90E-01,-0.196
-4.90E-01,-0.212
-4.90E-01,-0.204
-4.90E-01,-0.2
-4.89E-01,-0.188
-4.89E-01,-0.192
-4.89E-01,-0.164
-4.89E-01,-0.172
-4.89E-01,-0.168
-4.88E-01,-0.172
-4.88E-01,-0.164
-4.88E-01,-0.16
-4.88E-01,-0.164
-4.88E-01,-0.172
-4.87E-01,-0.16
-4.87E-01,-0.144
-4.87E-01,-0.148
-4.87E-01,-0.176
-4.87E-01,-0.16
-4.86E-01,-0.16
-4.86E-01,-0.144
-4.86E-01,-0.136
-4.86E-01,-0.148
-4.86E-01,-0.156
-4.85E-01,-0.14
-4.85E-01,-0.148
-4.85E-01,-0.16
-4.85E-01,-0.168
-4.85E-01,-0.144
-4.84E-01,-0.152
-4.84E-01,-0.156
-4.84E-01,-0.168
-4.84E-01,-0.168
-4.84E-01,-0.164
-4.83E-01,-0.184
-4.83E-01,-0.18
-4.83E-01,-0.184
-4.83E-01,-0.168
-4.83E-01,-0.148
-4.82E-01,-0.16
-4.82E-01,-0.132
-4.82E-01,-0.144
-4.82E-01,-0.136
-4.82E-01,-0.116
-4.81E-01,-0.104
-4.81E-01,-0.108
-4.81E-01,-0.076
-4.81E-01,-0.076
-4.81E-01,-0.068
-4.80E-01,-0.056
-4.80E-01,-0.06
-4.80E-01,-0.056
-4.80E-01,-0.044
-4.80E-01,-0.032
-4.79E-01,-0.06
-4.79E-01,-0.072
-4.79E-01,-0.064
-4.79E-01,-0.06
-4.79E-01,-0.04
-4.78E-01,-0.048
-4.78E-01,-0.048
-4.78E-01,-0.052
-4.78E-01,-0.044
-4.78E-01,-0.052
-4.77E-01,-0.076
-4.77E-01,-0.056
-4.77E-01,-0.056
-4.77E-01,-0.072
-4.77E-01,-0.072
-4.76E-01,-0.06
-4.76E-01,-0.06
-4.76E-01,-0.056
-4.76E-01,-0.056
-4.76E-01,-0.064
-4.75E-01,-0.056
-4.75E-01,-0.064
-4.75E-01,-0.068
-4.75E-01,-0.076
-4.75E-01,-0.096
-4.74E-01,-0.096
-4.74E-01,-0.104
-4.74E-01,-0.112
-4.74E-01,-0.1
-4.74E-01,-0.1
-4.73E-01,-0.096
-4.73E-01,-0.104
-4.73E-01,-0.088
-4.73E-01,-0.1
-4.73E-01,-0.084
-4.72E-01,-0.088
-4.72E-01,-0.084
-4.72E-01,-0.088
-4.72E-01,-0.072
-4.72E-01,-0.072
-4.71E-01,-0.076
-4.71E-01,-0.076
-4.71E-01,-0.068
-4.71E-01,-0.072
-4.71E-01,-0.056
-4.70E-01,-0.06
-4.70E-01,-0.06
-4.70E-01,-0.056
-4.70E-01,-0.044
-4.70E-01,-0.056
-4.69E-01,-0.048
-4.69E-01,-0.04
-4.69E-01,-0.036
-4.69E-01,-0.028
-4.69E-01,-0.024
-4.68E-01,-0.024
-4.68E-01,-0.024
-4.68E-01,0
-4.68E-01,-0.016
-4.68E-01,-0.024
-4.67E-01,-0.004
-4.67E-01,0.004
-4.67E-01,-0.024
-4.67E-01,-0.016
-4.67E-01,-0.008
-4.66E-01,-0.016
-4.66E-01,0.012
-4.66E-01,0.012
-4.66E-01,-0.008
-4.66E-01,0.012
-4.65E-01,0.012
-4.65E-01,0
-4.65E-01,0.004
-4.65E-01,0.008
-4.65E-01,-0.004
-4.64E-01,0.004
-4.64E-01,0.008
-4.64E-01,0.016
-4.64E-01,0.008
-4.64E-01,0.008
-4.63E-01,0.008
-4.63E-01,0.008
-4.63E-01,0.008
-4.63E-01,0.012
-4.63E-01,0.004
-4.62E-01,0.024
-4.62E-01,0.036
-4.62E-01,0.012
-4.62E-01,0.028
-4.62E-01,0.048
-4.61E-01,0.036
-4.61E-01,0.048
-4.61E-01,0.048
-4.61E-01,0.044
-4.61E-01,0.064
-4.60E-01,0.06
-4.60E-01,0.036
-4.60E-01,0.044
-4.60E-01,0.048
-4.60E-01,0.04
-4.59E-01,0.028
-4.59E-01,0.02
-4.59E-01,0.02
-4.59E-01,0.016
-4.59E-01,0.012
-4.58E-01,0.016
-4.58E-01,0.012
-4.58E-01,0.004
-4.58E-01,-0.016
-4.58E-01,-0.028
-4.57E-01,-0.036
-4.57E-01,-0.052
-4.57E-01,-0.056
-4.57E-01,-0.064
-4.57E-01,-0.08
-4.56E-01,-0.084
-4.56E-01,-0.104
-4.56E-01,-0.096
-4.56E-01,-0.104
-4.56E-01,-0.104
-4.55E-01,-0.092
-4.55E-01,-0.108
-4.55E-01,-0.096
-4.55E-01,-0.112
-4.55E-01,-0.116
-4.54E-01,-0.104
-4.54E-01,-0.096
-4.54E-01,-0.104
-4.54E-01,-0.072
-4.54E-01,-0.072
-4.53E-01,-0.056
-4.53E-01,-0.048
-4.53E-01,-0.052
-4.53E-01,-0.064
-4.53E-01,-0.044
-4.52E-01,-0.036
-4.52E-01,-0.036
-4.52E-01,-0.004
-4.52E-01,-0.008
-4.52E-01,-0.016
-4.51E-01,0.004
-4.51E-01,0.004
-4.51E-01,-0.004
-4.51E-01,0.028
-4.51E-01,0.028
-4.50E-01,0.012
-4.50E-01,0.036
-4.50E-01,0.04
-4.50E-01,0.04
-4.50E-01,0.044
-4.49E-01,0.036
-4.49E-01,0.052
-4.49E-01,0.048
-4.49E-01,0.056
-4.49E-01,0.06
-4.48E-01,0.056
-4.48E-01,0.068
-4.48E-01,0.068
-4.48E-01,0.06
-4.48E-01,0.072
-4.47E-01,0.076
-4.47E-01,0.08
-4.47E-01,0.084
-4.47E-01,0.092
-4.47E-01,0.084
-4.46E-01,0.1
-4.46E-01,0.12
-4.46E-01,0.1
-4.46E-01,0.088
-4.46E-01,0.104
-4.45E-01,0.092
-4.45E-01,0.088
-4.45E-01,0.088
-4.45E-01,0.076
-4.45E-01,0.06
-4.44E-01,0.048
-4.44E-01,0.048
-4.44E-01,0.036
-4.44E-01,0.044
-4.44E-01,0.024
-4.43E-01,0.004
-4.43E-01,-0.008
-4.43E-01,-0.028
-4.43E-01,-0.024
-4.43E-01,-0.02
-4.42E-01,-0.044
-4.42E-01,-0.06
-4.42E-01,-0.052
-4.42E-01,-0.044
-4.42E-01,-0.056
-4.41E-01,-0.06
-4.41E-01,-0.068
-4.41E-01,-0.064
-4.41E-01,-0.064
-4.41E-01,-0.072
-4.40E-01,-0.08
-4.40E-01,-0.048
-4.40E-01,-0.06
-4.40E-01,-0.064
-4.40E-01,-0.072
-4.39E-01,-0.04
-4.39E-01,-0.048
-4.39E-01,-0.02
-4.39E-01,-0.016
-4.39E-01,-0.028
-4.38E-01,-0.004
-4.38E-01,-0.016
-4.38E-01,-0.012
-4.38E-01,-0.004
-4.38E-01,0
-4.37E-01,0.004
-4.37E-01,0.028
-4.37E-01,0.04
-4.37E-01,0.044
-4.37E-01,0.048
-4.36E-01,0.076
-4.36E-01,0.064
-4.36E-01,0.072
-4.36E-01,0.08
-4.36E-01,0.076
-4.35E-01,0.084
-4.35E-01,0.08
-4.35E-01,0.08
-4.35E-01,0.084
-4.35E-01,0.08
-4.34E-01,0.084
-4.34E-01,0.084
-4.34E-01,0.092
-4.34E-01,0.088
-4.34E-01,0.108
-4.33E-01,0.108
-4.33E-01,0.112
-4.33E-01,0.132
-4.33E-01,0.148
-4.33E-01,0.168
-4.32E-01,0.144
-4.32E-01,0.16
-4.32E-01,0.18
-4.32E-01,0.184
-4.32E-01,0.2
-4.31E-01,0.2
-4.31E-01,0.192
-4.31E-01,0.2
-4.31E-01,0.196
-4.31E-01,0.204
-4.30E-01,0.184
-4.30E-01,0.176
-4.30E-01,0.176
-4.30E-01,0.176
-4.30E-01,0.172
-4.29E-01,0.172
-4.29E-01,0.152
-4.29E-01,0.156
-4.29E-01,0.14
-4.29E-01,0.132
-4.28E-01,0.12
-4.28E-01,0.164
-4.28E-01,0.16
-4.28E-01,0.156
-4.28E-01,0.156
-4.27E-01,0.148
-4.27E-01,0.14
-4.27E-01,0.152
-4.27E-01,0.116
-4.27E-01,0.12
-4.26E-01,0.104
-4.26E-01,0.108
-4.26E-01,0.096
-4.26E-01,0.068
-4.26E-01,0.056
-4.25E-01,0.072
-4.25E-01,0.068
-4.25E-01,0.036
-4.25E-01,0.036
-4.25E-01,0.028
-4.24E-01,0.028
-4.24E-01,0.004
-4.24E-01,0
-4.24E-01,-0.008
-4.24E-01,-0.004
-4.23E-01,0
-4.23E-01,0
-4.23E-01,0
-4.23E-01,0.008
-4.23E-01,0.004
-4.22E-01,0.012
-4.22E-01,0.016
-4.22E-01,0.028
-4.22E-01,0.02
-4.22E-01,0.028
-4.21E-01,0.012
-4.21E-01,0.008
-4.21E-01,0.02
-4.21E-01,0.012
-4.21E-01,0.016
-4.20E-01,0.016
-4.20E-01,0.028
-4.20E-01,0.024
-4.20E-01,0.032
-4.20E-01,0.036
-4.19E-01,0.036
-4.19E-01,0.04
-4.19E-01,0.04
-4.19E-01,0.052
-4.19E-01,0.036
-4.18E-01,0.064
-4.18E-01,0.064
-4.18E-01,0.056
-4.18E-01,0.092
-4.18E-01,0.088
-4.17E-01,0.12
-4.17E-01,0.148
-4.17E-01,0.132
-4.17E-01,0.136
-4.17E-01,0.164
-4.16E-01,0.16
-4.16E-01,0.156
-4.16E-01,0.164
-4.16E-01,0.152
-4.16E-01,0.168
-4.15E-01,0.176
-4.15E-01,0.188
-4.15E-01,0.172
-4.15E-01,0.208
-4.15E-01,0.204
-4.14E-01,0.216
-4.14E-01,0.208
-4.14E-01,0.216
-4.14E-01,0.216
-4.14E-01,0.2
-4.13E-01,0.2
-4.13E-01,0.2
-4.13E-01,0.192
-4.13E-01,0.188
-4.13E-01,0.184
-4.12E-01,0.18
-4.12E-01,0.176
-4.12E-01,0.18
-4.12E-01,0.152
-4.12E-01,0.164
-4.11E-01,0.164
-4.11E-01,0.16
-4.11E-01,0.164
-4.11E-01,0.164
-4.11E-01,0.152
-4.10E-01,0.164
-4.10E-01,0.144
-4.10E-01,0.128
-4.10E-01,0.136
-4.10E-01,0.136
-4.09E-01,0.108
-4.09E-01,0.104
-4.09E-01,0.112
-4.09E-01,0.096
-4.09E-01,0.08
-4.08E-01,0.088
-4.08E-01,0.084
-4.08E-01,0.088
-4.08E-01,0.068
-4.08E-01,0.056
-4.07E-01,0.044
-4.07E-01,0.044
-4.07E-01,0.028
-4.07E-01,0.032
-4.07E-01,0.036
-4.06E-01,0.052
-4.06E-01,0.052
-4.06E-01,0.056
-4.06E-01,0.044
-4.06E-01,0.048
-4.05E-01,0.048
-4.05E-01,0.056
-4.05E-01,0.068
-4.05E-01,0.072
-4.05E-01,0.076
-4.04E-01,0.072
-4.04E-01,0.088
-4.04E-01,0.092
-4.04E-01,0.088
-4.04E-01,0.108
-4.03E-01,0.096
-4.03E-01,0.124
-4.03E-01,0.132
-4.03E-01,0.132
-4.03E-01,0.144
-4.02E-01,0.144
-4.02E-01,0.148
-4.02E-01,0.144
-4.02E-01,0.172
-4.02E-01,0.168
-4.01E-01,0.164
-4.01E-01,0.192
-4.01E-01,0.18
-4.01E-01,0.164
-4.01E-01,0.192
-4.00E-01,0.164
-4.00E-01,0.176
-4.00E-01,0.164
-4.00E-01,0.16
-4.00E-01,0.144
-3.99E-01,0.152
-3.99E-01,0.164
-3.99E-01,0.16
-3.99E-01,0.136
-3.99E-01,0.156
-3.98E-01,0.14
-3.98E-01,0.16
-3.98E-01,0.152
-3.98E-01,0.144
-3.98E-01,0.136
-3.97E-01,0.152
-3.97E-01,0.144
-3.97E-01,0.144
-3.97E-01,0.116
-3.97E-01,0.132
-3.96E-01,0.128
-3.96E-01,0.128
-3.96E-01,0.12
-3.96E-01,0.108
-3.96E-01,0.088
-3.95E-01,0.112
-3.95E-01,0.068
-3.95E-01,0.068
-3.95E-01,0.048
-3.95E-01,0.052
-3.94E-01,0.044
-3.94E-01,0.052
-3.94E-01,0.024
-3.94E-01,0.032
-3.94E-01,0.04
-3.93E-01,0.048
-3.93E-01,0.036
-3.93E-01,0.04
-3.93E-01,0.02
-3.93E-01,0.008
-3.92E-01,0.016
-3.92E-01,-0.012
-3.92E-01,-0.02
-3.92E-01,-0.016
-3.92E-01,-0.012
-3.91E-01,0
-3.91E-01,0
-3.91E-01,-0.012
-3.91E-01,0
-3.91E-01,0.008
-3.90E-01,-0.004
-3.90E-01,0
-3.90E-01,0.024
-3.90E-01,0.02
-3.90E-01,0
-3.89E-01,0.028
-3.89E-01,0.02
-3.89E-01,0.028
-3.89E-01,0.032
-3.89E-01,0.032
-3.88E-01,0.032
-3.88E-01,0.04
-3.88E-01,0.028
-3.88E-01,0.008
-3.88E-01,0.04
-3.87E-01,0.036
-3.87E-01,0.008
-3.87E-01,0.032
-3.87E-01,0.02
-3.87E-01,0.012
-3.86E-01,0.012
-3.86E-01,0.032
-3.86E-01,0.02
-3.86E-01,0.04
-3.86E-01,0.032
-3.85E-01,0.036
-3.85E-01,0.032
-3.85E-01,0.044
-3.85E-01,0.052
-3.85E-01,0.064
-3.84E-01,0.068
-3.84E-01,0.068
-3.84E-01,0.088
-3.84E-01,0.092
-3.84E-01,0.104
-3.83E-01,0.096
-3.83E-01,0.104
-3.83E-01,0.1
-3.83E-01,0.096
-3.83E-01,0.144
-3.82E-01,0.128
-3.82E-01,0.132
-3.82E-01,0.152
-3.82E-01,0.144
-3.82E-01,0.156
-3.81E-01,0.184
-3.81E-01,0.18
-3.81E-01,0.192
-3.81E-01,0.188
-3.81E-01,0.192
-3.80E-01,0.188
-3.80E-01,0.172
-3.80E-01,0.196
-3.80E-01,0.192
-3.80E-01,0.192
-3.79E-01,0.172
-3.79E-01,0.184
-3.79E-01,0.18
-3.79E-01,0.184
-3.79E-01,0.184
-3.78E-01,0.16
-3.78E-01,0.16
-3.78E-01,0.172
-3.78E-01,0.16
-3.78E-01,0.168
-3.77E-01,0.156
-3.77E-01,0.144
-3.77E-01,0.148
-3.77E-01,0.168
-3.77E-01,0.136
-3.76E-01,0.128
-3.76E-01,0.132
-3.76E-01,0.12
-3.76E-01,0.1
-3.76E-01,0.088
-3.75E-01,0.072
-3.75E-01,0.072
-3.75E-01,0.068
-3.75E-01,0.06
-3.75E-01,0.048
-3.74E-01,0.048
-3.74E-01,0.032
-3.74E-01,0.032
-3.74E-01,0.02
-3.74E-01,0.012
-3.73E-01,0
-3.73E-01,-0.012
-3.73E-01,-0.032
-3.73E-01,-0.024
-3.73E-01,-0.028
-3.72E-01,-0.032
-3.72E-01,-0.032
-3.72E-01,-0.02
-3.72E-01,-0.024
-3.72E-01,-0.028
-3.71E-01,-0.04
-3.71E-01,-0.036
-3.71E-01,-0.036
-3.71E-01,-0.052
-3.71E-01,-0.06
-3.70E-01,-0.064
-3.70E-01,-0.06
-3.70E-01,-0.08
-3.70E-01,-0.096
-3.70E-01,-0.092
-3.69E-01,-0.076
-3.69E-01,-0.076
-3.69E-01,-0.076
-3.69E-01,-0.056
-3.69E-01,-0.06
-3.68E-01,-0.04
-3.68E-01,-0.028
-3.68E-01,-0.028
-3.68E-01,-0.008
-3.68E-01,0.012
-3.67E-01,0.008
-3.67E-01,0.044
-3.67E-01,0.052
-3.67E-01,0.032
-3.67E-01,0.036
-3.66E-01,0.048
-3.66E-01,0.036
-3.66E-01,0.044
-3.66E-01,0.036
-3.66E-01,0.052
-3.65E-01,0.052
-3.65E-01,0.06
-3.65E-01,0.052
-3.65E-01,0.056
-3.65E-01,0.048
-3.64E-01,0.076
-3.64E-01,0.064
-3.64E-01,0.052
-3.64E-01,0.036
-3.64E-01,0.068
-3.63E-01,0.052
-3.63E-01,0.032
-3.63E-01,0.036
-3.63E-01,0.04
-3.63E-01,0.04
-3.62E-01,0.048
-3.62E-01,0.044
-3.62E-01,0.072
-3.62E-01,0.06
-3.62E-01,0.072
-3.61E-01,0.072
-3.61E-01,0.072
-3.61E-01,0.076
-3.61E-01,0.08
-3.61E-01,0.076
-3.60E-01,0.076
-3.60E-01,0.08
-3.60E-01,0.064
-3.60E-01,0.048
-3.60E-01,0.072
-3.59E-01,0.06
-3.59E-01,0.06
-3.59E-01,0.064
-3.59E-01,0.06
-3.59E-01,0.06
-3.58E-01,0.08
-3.58E-01,0.076
-3.58E-01,0.076
-3.58E-01,0.064
-3.58E-01,0.06
-3.57E-01,0.076
-3.57E-01,0.072
-3.57E-01,0.084
-3.57E-01,0.072
-3.57E-01,0.08
-3.56E-01,0.092
-3.56E-01,0.08
-3.56E-01,0.088
-3.56E-01,0.076
-3.56E-01,0.06
-3.55E-01,0.064
-3.55E-01,0.044
-3.55E-01,0.04
-3.55E-01,0.036
-3.55E-01,0.04
-3.54E-01,0.02
-3.54E-01,-0.008
-3.54E-01,0.004
-3.54E-01,0
-3.54E-01,0.016
-3.53E-01,0.008
-3.53E-01,-0.008
-3.53E-01,-0.004
-3.53E-01,0.008
-3.53E-01,-0.016
-3.52E-01,-0.032
-3.52E-01,-0.012
-3.52E-01,-0.016
-3.52E-01,-0.02
-3.52E-01,-0.02
-3.51E-01,-0.028
-3.51E-01,-0.04
-3.51E-01,-0.012
-3.51E-01,-0.024
-3.51E-01,-0.036
-3.50E-01,-0.012
-3.50E-01,-0.02
-3.50E-01,-0.012
-3.50E-01,-0.012
-3.50E-01,-0.008
-3.49E-01,-0.004
-3.49E-01,0.008
-3.49E-01,0.012
-3.49E-01,0.004
-3.49E-01,0.02
-3.48E-01,0.036
-3.48E-01,0.028
-3.48E-01,0.048
-3.48E-01,0.072
-3.48E-01,0.052
-3.47E-01,0.064
-3.47E-01,0.088
-3.47E-01,0.076
-3.47E-01,0.052
-3.47E-01,0.06
-3.46E-01,0.08
-3.46E-01,0.068
-3.46E-01,0.076
-3.46E-01,0.068
-3.46E-01,0.048
-3.45E-01,0.044
-3.45E-01,0.04
-3.45E-01,0.012
-3.45E-01,0.02
-3.45E-01,0.004
-3.44E-01,-0.004
-3.44E-01,-0.016
-3.44E-01,-0.012
-3.44E-01,-0.008
-3.44E-01,-0.02
-3.43E-01,-0.02
-3.43E-01,-0.024
-3.43E-01,-0.036
-3.43E-01,-0.032
-3.43E-01,-0.04
-3.42E-01,-0.032
-3.42E-01,-0.036
-3.42E-01,-0.036
-3.42E-01,-0.024
-3.42E-01,-0.028
-3.41E-01,-0.032
-3.41E-01,-0.032
-3.41E-01,-0.04
-3.41E-01,-0.04
-3.41E-01,-0.048
-3.40E-01,-0.028
-3.40E-01,-0.044
-3.40E-01,-0.052
-3.40E-01,-0.04
-3.40E-01,-0.068
-3.39E-01,-0.028
-3.39E-01,-0.02
-3.39E-01,-0.012
-3.39E-01,-0.024
-3.39E-01,-0.02
-3.38E-01,-0.004
-3.38E-01,0.004
-3.38E-01,0.004
-3.38E-01,0.012
-3.38E-01,0.012
-3.37E-01,0.04
-3.37E-01,0.044
-3.37E-01,0.04
-3.37E-01,0.048
-3.37E-01,0.06
-3.36E-01,0.052
-3.36E-01,0.06
-3.36E-01,0.052
-3.36E-01,0.072
-3.36E-01,0.072
-3.35E-01,0.088
-3.35E-01,0.088
-3.35E-01,0.088
-3.35E-01,0.108
-3.35E-01,0.1
-3.34E-01,0.108
-3.34E-01,0.096
-3.34E-01,0.104
-3.34E-01,0.104
-3.34E-01,0.112
-3.33E-01,0.108
-3.33E-01,0.112
-3.33E-01,0.128
-3.33E-01,0.116
-3.33E-01,0.112
-3.32E-01,0.128
-3.32E-01,0.128
-3.32E-01,0.136
-3.32E-01,0.148
-3.32E-01,0.144
-3.31E-01,0.132
-3.31E-01,0.124
-3.31E-01,0.124
-3.31E-01,0.104
-3.31E-01,0.092
-3.30E-01,0.068
-3.30E-01,0.048
-3.30E-01,0.032
-3.30E-01,0.028
-3.30E-01,0.024
-3.29E-01,0.024
-3.29E-01,0.016
-3.29E-01,0.004
-3.29E-01,0
-3.29E-01,0
-3.28E-01,-0.004
-3.28E-01,-0.004
-3.28E-01,0.008
-3.28E-01,-0.004
-3.28E-01,-0.02
-3.27E-01,0
-3.27E-01,-0.008
-3.27E-01,-0.04
-3.27E-01,-0.048
-3.27E-01,-0.036
-3.26E-01,-0.044
-3.26E-01,-0.044
-3.26E-01,-0.052
-3.26E-01,-0.08
-3.26E-01,-0.072
-3.25E-01,-0.084
-3.25E-01,-0.104
-3.25E-01,-0.088
-3.25E-01,-0.104
-3.25E-01,-0.108
-3.24E-01,-0.124
-3.24E-01,-0.112
-3.24E-01,-0.12
-3.24E-01,-0.108
-3.24E-01,-0.112
-3.23E-01,-0.108
-3.23E-01,-0.12
-3.23E-01,-0.12
-3.23E-01,-0.108
-3.23E-01,-0.108
-3.22E-01,-0.108
-3.22E-01,-0.132
-3.22E-01,-0.124
-3.22E-01,-0.112
-3.22E-01,-0.116
-3.21E-01,-0.112
-3.21E-01,-0.108
-3.21E-01,-0.124
-3.21E-01,-0.1
-3.21E-01,-0.104
-3.20E-01,-0.108
-3.20E-01,-0.1
-3.20E-01,-0.076
-3.20E-01,-0.092
-3.20E-01,-0.104
-3.19E-01,-0.096
-3.19E-01,-0.088
-3.19E-01,-0.104
-3.19E-01,-0.056
-3.19E-01,-0.052
-3.18E-01,-0.036
-3.18E-01,-0.02
-3.18E-01,-0.008
-3.18E-01,-0.008
-3.18E-01,0.024
-3.17E-01,0.04
-3.17E-01,0.044
-3.17E-01,0.052
-3.17E-01,0.076
-3.17E-01,0.048
-3.16E-01,0.056
-3.16E-01,0.064
-3.16E-01,0.06
-3.16E-01,0.076
-3.16E-01,0.068
-3.15E-01,0.08
-3.15E-01,0.088
-3.15E-01,0.1
-3.15E-01,0.116
-3.15E-01,0.104
-3.14E-01,0.128
-3.14E-01,0.144
-3.14E-01,0.124
-3.14E-01,0.128
-3.14E-01,0.144
-3.13E-01,0.136
-3.13E-01,0.112
-3.13E-01,0.12
-3.13E-01,0.12
-3.13E-01,0.112
-3.12E-01,0.112
-3.12E-01,0.072
-3.12E-01,0.076
-3.12E-01,0.08
-3.12E-01,0.056
-3.11E-01,0.024
-3.11E-01,0.024
-3.11E-01,0.012
-3.11E-01,0.016
-3.11E-01,0.012
-3.10E-01,-0.016
-3.10E-01,-0.024
-3.10E-01,-0.028
-3.10E-01,-0.024
-3.10E-01,-0.036
-3.09E-01,-0.024
-3.09E-01,-0.052
-3.09E-01,-0.048
-3.09E-01,-0.06
-3.09E-01,-0.084
-3.08E-01,-0.072
-3.08E-01,-0.056
-3.08E-01,-0.072
-3.08E-01,-0.076
-3.08E-01,-0.096
-3.07E-01,-0.096
-3.07E-01,-0.092
-3.07E-01,-0.084
-3.07E-01,-0.092
-3.07E-01,-0.108
-3.06E-01,-0.104
-3.06E-01,-0.104
-3.06E-01,-0.088
-3.06E-01,-0.092
-3.06E-01,-0.112
-3.05E-01,-0.112
-3.05E-01,-0.108
-3.05E-01,-0.1
-3.05E-01,-0.1
-3.05E-01,-0.1
-3.04E-01,-0.08
-3.04E-01,-0.084
-3.04E-01,-0.068
-3.04E-01,-0.072
-3.04E-01,-0.06
-3.03E-01,-0.044
-3.03E-01,-0.056
-3.03E-01,-0.032
-3.03E-01,-0.016
-3.03E-01,-0.04
-3.02E-01,-0.028
-3.02E-01,-0.02
-3.02E-01,-0.012
-3.02E-01,-0.004
-3.02E-01,0
-3.01E-01,0.024
-3.01E-01,0.028
-3.01E-01,0.024
-3.01E-01,0.032
-3.01E-01,0.032
-3.00E-01,0.044
-3.00E-01,0.068
-3.00E-01,0.056
-3.00E-01,0.068
-3.00E-01,0.076
-2.99E-01,0.076
-2.99E-01,0.076
-2.99E-01,0.08
-2.99E-01,0.08
-2.99E-01,0.076
-2.98E-01,0.076
-2.98E-01,0.1
-2.98E-01,0.1
-2.98E-01,0.1
-2.98E-01,0.1
-2.97E-01,0.104
-2.97E-01,0.096
-2.97E-01,0.12
-2.97E-01,0.1
-2.97E-01,0.096
-2.96E-01,0.108
-2.96E-01,0.104
-2.96E-01,0.084
-2.96E-01,0.072
-2.96E-01,0.06
-2.95E-01,0.048
-2.95E-01,0.048
-2.95E-01,0.052
-2.95E-01,0.036
-2.95E-01,0.072
-2.94E-01,0.068
-2.94E-01,0.048
-2.94E-01,0.044
-2.94E-01,0.048
-2.94E-01,0.048
-2.93E-01,0.056
-2.93E-01,0.064
-2.93E-01,0.048
-2.93E-01,0.056
-2.93E-01,0.06
-2.92E-01,0.056
-2.92E-01,0.048
-2.92E-01,0.04
-2.92E-01,0.036
-2.92E-01,0.02
-2.91E-01,0.024
-2.91E-01,0.008
-2.91E-01,0.012
-2.91E-01,0.004
-2.91E-01,-0.028
-2.90E-01,-0.024
-2.90E-01,-0.032
-2.90E-01,-0.032
-2.90E-01,-0.044
-2.90E-01,-0.028
-2.89E-01,-0.028
-2.89E-01,-0.032
-2.89E-01,-0.02
-2.89E-01,-0.036
-2.89E-01,-0.044
-2.88E-01,-0.036
-2.88E-01,-0.044
-2.88E-01,-0.044
-2.88E-01,-0.048
-2.88E-01,-0.06
-2.87E-01,-0.068
-2.87E-01,-0.088
-2.87E-01,-0.104
-2.87E-01,-0.104
-2.87E-01,-0.084
-2.86E-01,-0.076
-2.86E-01,-0.072
-2.86E-01,-0.072
-2.86E-01,-0.04
-2.86E-01,-0.036
-2.85E-01,-0.016
-2.85E-01,-0.016
-2.85E-01,-0.012
-2.85E-01,0.028
-2.85E-01,0.036
-2.84E-01,0.04
-2.84E-01,0.048
-2.84E-01,0.06
-2.84E-01,0.088
-2.84E-01,0.076
-2.83E-01,0.092
-2.83E-01,0.072
-2.83E-01,0.1
-2.83E-01,0.108
-2.83E-01,0.104
-2.82E-01,0.104
-2.82E-01,0.104
-2.82E-01,0.1
-2.82E-01,0.108
-2.82E-01,0.104
-2.81E-01,0.112
-2.81E-01,0.072
-2.81E-01,0.088
-2.81E-01,0.076
-2.81E-01,0.072
-2.80E-01,0.06
-2.80E-01,0.056
-2.80E-01,0.056
-2.80E-01,0.052
-2.80E-01,0.028
-2.79E-01,0.012
-2.79E-01,0.004
-2.79E-01,0
-2.79E-01,-0.024
-2.79E-01,-0.048
-2.78E-01,-0.052
-2.78E-01,-0.056
-2.78E-01,-0.056
-2.78E-01,-0.068
-2.78E-01,-0.084
-2.77E-01,-0.08
-2.77E-01,-0.08
-2.77E-01,-0.084
-2.77E-01,-0.088
-2.77E-01,-0.08
-2.76E-01,-0.092
-2.76E-01,-0.104
-2.76E-01,-0.096
-2.76E-01,-0.104
-2.76E-01,-0.096
-2.75E-01,-0.08
-2.75E-01,-0.096
-2.75E-01,-0.108
-2.75E-01,-0.096
-2.75E-01,-0.096
-2.74E-01,-0.108
-2.74E-01,-0.084
-2.74E-01,-0.076
-2.74E-01,-0.092
-2.74E-01,-0.08
-2.73E-01,-0.08
-2.73E-01,-0.072
-2.73E-01,-0.052
-2.73E-01,-0.056
-2.73E-01,-0.056
-2.72E-01,-0.044
-2.72E-01,-0.044
-2.72E-01,-0.052
-2.72E-01,-0.032
-2.72E-01,-0.036
-2.71E-01,-0.04
-2.71E-01,-0.02
-2.71E-01,-0.032
-2.71E-01,-0.016
-2.71E-01,-0.008
-2.70E-01,-0.004
-2.70E-01,-0.02
-2.70E-01,0.016
-2.70E-01,0.02
-2.70E-01,0.012
-2.69E-01,0.032
-2.69E-01,0.056
-2.69E-01,0.056
-2.69E-01,0.048
-2.69E-01,0.064
-2.68E-01,0.06
-2.68E-01,0.08
-2.68E-01,0.092
-2.68E-01,0.068
-2.68E-01,0.076
-2.67E-01,0.096
-2.67E-01,0.1
-2.67E-01,0.092
-2.67E-01,0.112
-2.67E-01,0.108
-2.66E-01,0.112
-2.66E-01,0.132
-2.66E-01,0.132
-2.66E-01,0.156
-2.66E-01,0.172
-2.65E-01,0.18
-2.65E-01,0.192
-2.65E-01,0.188
-2.65E-01,0.196
-2.65E-01,0.192
-2.64E-01,0.204
-2.64E-01,0.188
-2.64E-01,0.176
-2.64E-01,0.16
-2.64E-01,0.164
-2.63E-01,0.164
-2.63E-01,0.144
-2.63E-01,0.12
-2.63E-01,0.132
-2.63E-01,0.104
-2.62E-01,0.144
-2.62E-01,0.112
-2.62E-01,0.112
-2.62E-01,0.124
-2.62E-01,0.12
-2.61E-01,0.1
-2.61E-01,0.112
-2.61E-01,0.104
-2.61E-01,0.1
-2.61E-01,0.1
-2.60E-01,0.096
-2.60E-01,0.092
-2.60E-01,0.1
-2.60E-01,0.084
-2.60E-01,0.064
-2.59E-01,0.06
-2.59E-01,0.064
-2.59E-01,0.032
-2.59E-01,0.032
-2.59E-01,0.012
-2.58E-01,-0.012
-2.58E-01,-0.02
-2.58E-01,-0.04
-2.58E-01,-0.068
-2.58E-01,-0.064
-2.57E-01,-0.092
-2.57E-01,-0.088
-2.57E-01,-0.108
-2.57E-01,-0.112
-2.57E-01,-0.128
-2.56E-01,-0.128
-2.56E-01,-0.144
-2.56E-01,-0.144
-2.56E-01,-0.136
-2.56E-01,-0.12
-2.55E-01,-0.124
-2.55E-01,-0.136
-2.55E-01,-0.112
-2.55E-01,-0.08
-2.55E-01,-0.092
-2.54E-01,-0.084
-2.54E-01,-0.076
-2.54E-01,-0.068
-2.54E-01,-0.056
-2.54E-01,-0.048
-2.53E-01,-0.048
-2.53E-01,-0.044
-2.53E-01,-0.04
-2.53E-01,-0.044
-2.53E-01,-0.012
-2.52E-01,-0.016
-2.52E-01,-0.016
-2.52E-01,-0.004
-2.52E-01,0.02
-2.52E-01,0.008
-2.51E-01,0.024
-2.51E-01,0.024
-2.51E-01,0.04
-2.51E-01,0.056
-2.51E-01,0.048
-2.50E-01,0.052
-2.50E-01,0.076
-2.50E-01,0.092
-2.50E-01,0.08
-2.50E-01,0.08
-2.49E-01,0.096
-2.49E-01,0.096
-2.49E-01,0.088
-2.49E-01,0.08
-2.49E-01,0.072
-2.48E-01,0.064
-2.48E-01,0.064
-2.48E-01,0.072
-2.48E-01,0.056
-2.48E-01,0.048
-2.47E-01,0.048
-2.47E-01,0.028
-2.47E-01,0.036
-2.47E-01,0.028
-2.47E-01,0.012
-2.46E-01,0.024
-2.46E-01,0.036
-2.46E-01,0.044
-2.46E-01,0.032
-2.46E-01,0.056
-2.45E-01,0.084
-2.45E-01,0.076
-2.45E-01,0.072
-2.45E-01,0.068
-2.45E-01,0.068
-2.44E-01,0.064
-2.44E-01,0.06
-2.44E-01,0.044
-2.44E-01,0.036
-2.44E-01,0.052
-2.43E-01,0.024
-2.43E-01,0.012
-2.43E-01,0.008
-2.43E-01,-0.004
-2.43E-01,-0.008
-2.42E-01,-0.036
-2.42E-01,-0.02
-2.42E-01,-0.024
-2.42E-01,-0.02
-2.42E-01,-0.048
-2.41E-01,-0.044
-2.41E-01,-0.044
-2.41E-01,-0.052
-2.41E-01,-0.048
-2.41E-01,-0.052
-2.40E-01,-0.072
-2.40E-01,-0.064
-2.40E-01,-0.084
-2.40E-01,-0.112
-2.40E-01,-0.132
-2.39E-01,-0.116
-2.39E-01,-0.136
-2.39E-01,-0.136
-2.39E-01,-0.148
-2.39E-01,-0.148
-2.38E-01,-0.14
-2.38E-01,-0.14
-2.38E-01,-0.136
-2.38E-01,-0.12
-2.38E-01,-0.104
-2.37E-01,-0.112
-2.37E-01,-0.092
-2.37E-01,-0.088
-2.37E-01,-0.092
-2.37E-01,-0.056
-2.36E-01,-0.068
-2.36E-01,-0.056
-2.36E-01,-0.064
-2.36E-01,-0.04
-2.36E-01,-0.044
-2.35E-01,-0.02
-2.35E-01,-0.012
-2.35E-01,-0.012
-2.35E-01,0.016
-2.35E-01,0.028
-2.34E-01,0.032
-2.34E-01,0.04
-2.34E-01,0.04
-2.34E-01,0.052
-2.34E-01,0.044
-2.33E-01,0.068
-2.33E-01,0.052
-2.33E-01,0.052
-2.33E-01,0.072
-2.33E-01,0.096
-2.32E-01,0.088
-2.32E-01,0.084
-2.32E-01,0.112
-2.32E-01,0.1
-2.32E-01,0.1
-2.31E-01,0.108
-2.31E-01,0.1
-2.31E-01,0.076
-2.31E-01,0.08
-2.31E-01,0.08
-2.30E-01,0.068
-2.30E-01,0.052
-2.30E-01,0.048
-2.30E-01,0.044
-2.30E-01,0.064
-2.29E-01,0.044
-2.29E-01,0.028
-2.29E-01,0.052
-2.29E-01,0.064
-2.29E-01,0.036
-2.28E-01,0.024
-2.28E-01,0.02
-2.28E-01,0.008
-2.28E-01,0
-2.28E-01,-0.008
-2.27E-01,-0.02
-2.27E-01,-0.04
-2.27E-01,-0.028
-2.27E-01,-0.036
-2.27E-01,-0.056
-2.26E-01,-0.056
-2.26E-01,-0.052
-2.26E-01,-0.072
-2.26E-01,-0.084
-2.26E-01,-0.088
-2.25E-01,-0.104
-2.25E-01,-0.1
-2.25E-01,-0.108
-2.25E-01,-0.116
-2.25E-01,-0.1
-2.24E-01,-0.124
-2.24E-01,-0.128
-2.24E-01,-0.104
-2.24E-01,-0.112
-2.24E-01,-0.076
-2.23E-01,-0.08
-2.23E-01,-0.1
-2.23E-01,-0.076
-2.23E-01,-0.088
-2.23E-01,-0.072
-2.22E-01,-0.072
-2.22E-01,-0.06
-2.22E-01,-0.056
-2.22E-01,-0.036
-2.22E-01,-0.032
-2.21E-01,-0.036
-2.21E-01,-0.012
-2.21E-01,-0.012
-2.21E-01,0.008
-2.21E-01,0.012
-2.20E-01,0.012
-2.20E-01,0.044
-2.20E-01,0.048
-2.20E-01,0.052
-2.20E-01,0.068
-2.19E-01,0.06
-2.19E-01,0.076
-2.19E-01,0.088
-2.19E-01,0.08
-2.19E-01,0.068
-2.18E-01,0.072
-2.18E-01,0.06
-2.18E-01,0.052
-2.18E-01,0.052
-2.18E-01,0.044
-2.17E-01,0.04
-2.17E-01,0.06
-2.17E-01,0.04
-2.17E-01,0.048
-2.17E-01,0.056
-2.16E-01,0.064
-2.16E-01,0.076
-2.16E-01,0.064
-2.16E-01,0.084
-2.16E-01,0.104
-2.15E-01,0.092
-2.15E-01,0.112
-2.15E-01,0.088
-2.15E-01,0.08
-2.15E-01,0.084
-2.14E-01,0.064
-2.14E-01,0.032
-2.14E-01,0.044
-2.14E-01,0.012
-2.14E-01,0.012
-2.13E-01,0.008
-2.13E-01,0
-2.13E-01,-0.004
-2.13E-01,0.012
-2.13E-01,-0.004
-2.12E-01,0.012
-2.12E-01,0.004
-2.12E-01,0.008
-2.12E-01,0.02
-2.12E-01,0.012
-2.11E-01,0.004
-2.11E-01,0
-2.11E-01,-0.012
-2.11E-01,-0.028
-2.11E-01,-0.044
-2.10E-01,-0.048
-2.10E-01,-0.044
-2.10E-01,-0.084
-2.10E-01,-0.068
-2.10E-01,-0.088
-2.09E-01,-0.096
-2.09E-01,-0.084
-2.09E-01,-0.072
-2.09E-01,-0.088
-2.09E-01,-0.072
-2.08E-01,-0.064
-2.08E-01,-0.04
-2.08E-01,-0.04
-2.08E-01,-0.048
-2.08E-01,-0.06
-2.07E-01,-0.044
-2.07E-01,-0.044
-2.07E-01,-0.048
-2.07E-01,-0.04
-2.07E-01,-0.032
-2.06E-01,-0.06
-2.06E-01,-0.036
-2.06E-01,-0.048
-2.06E-01,-0.052
-2.06E-01,-0.056
-2.05E-01,-0.04
-2.05E-01,-0.056
-2.05E-01,-0.064
-2.05E-01,-0.072
-2.05E-01,-0.076
-2.04E-01,-0.088
-2.04E-01,-0.088
-2.04E-01,-0.088
-2.04E-01,-0.096
-2.04E-01,-0.08
-2.03E-01,-0.088
-2.03E-01,-0.08
-2.03E-01,-0.068
-2.03E-01,-0.08
-2.03E-01,-0.052
-2.02E-01,-0.036
-2.02E-01,-0.032
-2.02E-01,-0.024
-2.02E-01,-0.008
-2.02E-01,0.008
-2.01E-01,0
-2.01E-01,0.032
-2.01E-01,0.036
-2.01E-01,0.036
-2.01E-01,0.032
-2.00E-01,0.036
-2.00E-01,0.024
-2.00E-01,0.04
-2.00E-01,0.032
-2.00E-01,0.024
-1.99E-01,0.012
-1.99E-01,0.008
-1.99E-01,-0.004
-1.99E-01,-0.008
-1.99E-01,0
-1.98E-01,-0.012
-1.98E-01,-0.012
-1.98E-01,0.004
-1.98E-01,0
-1.98E-01,-0.02
-1.97E-01,-0.012
-1.97E-01,-0.024
-1.97E-01,-0.032
-1.97E-01,-0.036
-1.97E-01,-0.028
-1.96E-01,-0.044
-1.96E-01,-0.04
-1.96E-01,-0.04
-1.96E-01,-0.044
-1.96E-01,-0.064
-1.95E-01,-0.068
-1.95E-01,-0.064
-1.95E-01,-0.068
-1.95E-01,-0.072
-1.95E-01,-0.072
-1.94E-01,-0.088
-1.94E-01,-0.088
-1.94E-01,-0.1
-1.94E-01,-0.1
-1.94E-01,-0.096
-1.93E-01,-0.076
-1.93E-01,-0.104
-1.93E-01,-0.108
-1.93E-01,-0.104
-1.93E-01,-0.1
-1.92E-01,-0.104
-1.92E-01,-0.1
-1.92E-01,-0.112
-1.92E-01,-0.1
-1.92E-01,-0.108
-1.91E-01,-0.108
-1.91E-01,-0.1
-1.91E-01,-0.112
-1.91E-01,-0.116
-1.91E-01,-0.124
-1.90E-01,-0.14
-1.90E-01,-0.144
-1.90E-01,-0.128
-1.90E-01,-0.136
-1.90E-01,-0.168
-1.89E-01,-0.136
-1.89E-01,-0.14
-1.89E-01,-0.128
-1.89E-01,-0.124
-1.89E-01,-0.14
-1.88E-01,-0.14
-1.88E-01,-0.14
-1.88E-01,-0.14
-1.88E-01,-0.144
-1.88E-01,-0.152
-1.87E-01,-0.14
-1.87E-01,-0.144
-1.87E-01,-0.148
-1.87E-01,-0.132
-1.87E-01,-0.128
-1.86E-01,-0.144
-1.86E-01,-0.116
-1.86E-01,-0.108
-1.86E-01,-0.088
-1.86E-01,-0.06
-1.85E-01,-0.056
-1.85E-01,-0.068
-1.85E-01,-0.04
-1.85E-01,-0.012
-1.85E-01,0
-1.84E-01,0.028
-1.84E-01,0.04
-1.84E-01,0.04
-1.84E-01,0.092
-1.84E-01,0.084
-1.83E-01,0.088
-1.83E-01,0.096
-1.83E-01,0.104
-1.83E-01,0.1
-1.83E-01,0.116
-1.82E-01,0.108
-1.82E-01,0.092
-1.82E-01,0.108
-1.82E-01,0.092
-1.82E-01,0.076
-1.81E-01,0.072
-1.81E-01,0.088
-1.81E-01,0.092
-1.81E-01,0.088
-1.81E-01,0.092
-1.80E-01,0.076
-1.80E-01,0.096
-1.80E-01,0.1
-1.80E-01,0.088
-1.80E-01,0.088
-1.79E-01,0.096
-1.79E-01,0.084
-1.79E-01,0.08
-1.79E-01,0.072
-1.79E-01,0.064
-1.78E-01,0.052
-1.78E-01,0.048
-1.78E-01,0.032
-1.78E-01,0.024
-1.78E-01,0.012
-1.77E-01,0.016
-1.77E-01,0.004
-1.77E-01,0.004
-1.77E-01,0
-1.77E-01,-0.012
-1.76E-01,-0.004
-1.76E-01,0.008
-1.76E-01,-0.024
-1.76E-01,-0.028
-1.76E-01,-0.036
-1.75E-01,-0.056
-1.75E-01,-0.056
-1.75E-01,-0.08
-1.75E-01,-0.104
-1.75E-01,-0.104
-1.74E-01,-0.1
-1.74E-01,-0.136
-1.74E-01,-0.14
-1.74E-01,-0.152
-1.74E-01,-0.148
-1.73E-01,-0.144
-1.73E-01,-0.156
-1.73E-01,-0.18
-1.73E-01,-0.184
-1.73E-01,-0.184
-1.72E-01,-0.184
-1.72E-01,-0.2
-1.72E-01,-0.2
-1.72E-01,-0.188
-1.72E-01,-0.2
-1.71E-01,-0.208
-1.71E-01,-0.188
-1.71E-01,-0.184
-1.71E-01,-0.156
-1.71E-01,-0.148
-1.70E-01,-0.156
-1.70E-01,-0.124
-1.70E-01,-0.1
-1.70E-01,-0.112
-1.70E-01,-0.064
-1.69E-01,-0.052
-1.69E-01,-0.052
-1.69E-01,-0.028
-1.69E-01,0.004
-1.69E-01,0.008
-1.68E-01,0.012
-1.68E-01,0.032
-1.68E-01,0.044
-1.68E-01,0.056
-1.68E-01,0.064
-1.67E-01,0.08
-1.67E-01,0.112
-1.67E-01,0.108
-1.67E-01,0.124
-1.67E-01,0.12
-1.66E-01,0.136
-1.66E-01,0.164
-1.66E-01,0.152
-1.66E-01,0.136
-1.66E-01,0.16
-1.65E-01,0.148
-1.65E-01,0.14
-1.65E-01,0.124
-1.65E-01,0.108
-1.65E-01,0.116
-1.64E-01,0.092
-1.64E-01,0.088
-1.64E-01,0.052
-1.64E-01,0.052
-1.64E-01,0.044
-1.63E-01,0.024
-1.63E-01,0.012
-1.63E-01,0.016
-1.63E-01,0.008
-1.63E-01,0.012
-1.62E-01,0.012
-1.62E-01,0.008
-1.62E-01,-0.012
-1.62E-01,-0.004
-1.62E-01,-0.016
-1.61E-01,-0.024
-1.61E-01,-0.04
-1.61E-01,-0.04
-1.61E-01,-0.028
-1.61E-01,-0.036
-1.60E-01,-0.044
-1.60E-01,-0.032
-1.60E-01,-0.04
-1.60E-01,-0.04
-1.60E-01,-0.036
-1.59E-01,-0.064
-1.59E-01,-0.076
-1.59E-01,-0.072
-1.59E-01,-0.076
-1.59E-01,-0.092
-1.58E-01,-0.092
-1.58E-01,-0.096
-1.58E-01,-0.096
-1.58E-01,-0.104
-1.58E-01,-0.092
-1.57E-01,-0.1
-1.57E-01,-0.092
-1.57E-01,-0.084
-1.57E-01,-0.092
-1.57E-01,-0.088
-1.56E-01,-0.084
-1.56E-01,-0.1
-1.56E-01,-0.092
-1.56E-01,-0.096
-1.56E-01,-0.092
-1.55E-01,-0.096
-1.55E-01,-0.084
-1.55E-01,-0.092
-1.55E-01,-0.076
-1.55E-01,-0.084
-1.54E-01,-0.068
-1.54E-01,-0.072
-1.54E-01,-0.056
-1.54E-01,-0.048
-1.54E-01,-0.044
-1.53E-01,-0.016
-1.53E-01,-0.036
-1.53E-01,0.012
-1.53E-01,0.012
-1.53E-01,0.024
-1.52E-01,0.028
-1.52E-01,0.036
-1.52E-01,0.016
-1.52E-01,0.044
-1.52E-01,0.032
-1.51E-01,0.036
-1.51E-01,0.044
-1.51E-01,0.064
-1.51E-01,0.06
-1.51E-01,0.06
-1.50E-01,0.076
-1.50E-01,0.08
-1.50E-01,0.088
-1.50E-01,0.104
-1.50E-01,0.1
-1.49E-01,0.1
-1.49E-01,0.124
-1.49E-01,0.14
-1.49E-01,0.132
-1.49E-01,0.136
-1.48E-01,0.132
-1.48E-01,0.148
-1.48E-01,0.156
-1.48E-01,0.176
-1.48E-01,0.164
-1.47E-01,0.156
-1.47E-01,0.156
-1.47E-01,0.164
-1.47E-01,0.148
-1.47E-01,0.152
-1.46E-01,0.14
-1.46E-01,0.136
-1.46E-01,0.144
-1.46E-01,0.144
-1.46E-01,0.136
-1.45E-01,0.12
-1.45E-01,0.124
-1.45E-01,0.112
-1.45E-01,0.108
-1.45E-01,0.112
-1.44E-01,0.12
-1.44E-01,0.104
-1.44E-01,0.104
-1.44E-01,0.088
-1.44E-01,0.088
-1.43E-01,0.076
-1.43E-01,0.072
-1.43E-01,0.032
-1.43E-01,0.04
-1.43E-01,0.016
-1.42E-01,0.012
-1.42E-01,0.008
-1.42E-01,0.012
-1.42E-01,0.008
-1.42E-01,0.02
-1.41E-01,-0.012
-1.41E-01,-0.004
-1.41E-01,0.012
-1.41E-01,-0.004
-1.41E-01,-0.012
-1.40E-01,-0.004
-1.40E-01,0
-1.40E-01,0.008
-1.40E-01,0
-1.40E-01,-0.004
-1.39E-01,-0.02
-1.39E-01,-0.008
-1.39E-01,-0.004
-1.39E-01,-0.028
-1.39E-01,-0.02
-1.38E-01,-0.024
-1.38E-01,-0.012
-1.38E-01,-0.016
-1.38E-01,-0.008
-1.38E-01,0
-1.37E-01,0.012
-1.37E-01,0.044
-1.37E-01,0.036
-1.37E-01,0.036
-1.37E-01,0.052
-1.36E-01,0.052
-1.36E-01,0.056
-1.36E-01,0.052
-1.36E-01,0.056
-1.36E-01,0.068
-1.35E-01,0.064
-1.35E-01,0.06
-1.35E-01,0.052
-1.35E-01,0.056
-1.35E-01,0.068
-1.34E-01,0.076
-1.34E-01,0.068
-1.34E-01,0.068
-1.34E-01,0.092
-1.34E-01,0.088
-1.33E-01,0.096
-1.33E-01,0.092
-1.33E-01,0.108
-1.33E-01,0.112
-1.33E-01,0.128
-1.32E-01,0.136
-1.32E-01,0.152
-1.32E-01,0.148
-1.32E-01,0.16
-1.32E-01,0.18
-1.31E-01,0.168
-1.31E-01,0.188
-1.31E-01,0.184
-1.31E-01,0.196
-1.31E-01,0.208
-1.30E-01,0.196
-1.30E-01,0.192
-1.30E-01,0.212
-1.30E-01,0.164
-1.30E-01,0.184
-1.29E-01,0.168
-1.29E-01,0.168
-1.29E-01,0.164
-1.29E-01,0.168
-1.29E-01,0.156
-1.28E-01,0.152
-1.28E-01,0.136
-1.28E-01,0.152
-1.28E-01,0.144
-1.28E-01,0.152
-1.27E-01,0.136
-1.27E-01,0.14
-1.27E-01,0.132
-1.27E-01,0.132
-1.27E-01,0.108
-1.26E-01,0.104
-1.26E-01,0.104
-1.26E-01,0.104
-1.26E-01,0.076
-1.26E-01,0.08
-1.25E-01,0.08
-1.25E-01,0.076
-1.25E-01,0.076
-1.25E-01,0.064
-1.25E-01,0.056
-1.24E-01,0.072
-1.24E-01,0.072
-1.24E-01,0.076
-1.24E-01,0.076
-1.24E-01,0.06
-1.23E-01,0.056
-1.23E-01,0.04
-1.23E-01,0.028
-1.23E-01,0.02
-1.23E-01,0.012
-1.22E-01,0.02
-1.22E-01,-0.008
-1.22E-01,0.012
-1.22E-01,0.032
-1.22E-01,0.032
-1.21E-01,0.012
-1.21E-01,0.02
-1.21E-01,0.016
-1.21E-01,0.028
-1.21E-01,0.052
-1.20E-01,0.052
-1.20E-01,0.056
-1.20E-01,0.076
-1.20E-01,0.08
-1.20E-01,0.072
-1.19E-01,0.056
-1.19E-01,0.06
-1.19E-01,0.052
-1.19E-01,0.032
-1.19E-01,0.028
-1.18E-01,0.036
-1.18E-01,0.036
-1.18E-01,0.044
-1.18E-01,0.036
-1.18E-01,0.048
-1.17E-01,0.056
-1.17E-01,0.052
-1.17E-01,0.072
-1.17E-01,0.076
-1.17E-01,0.076
-1.16E-01,0.064
-1.16E-01,0.076
-1.16E-01,0.104
-1.16E-01,0.076
-1.16E-01,0.08
-1.15E-01,0.068
-1.15E-01,0.072
-1.15E-01,0.056
-1.15E-01,0.06
-1.15E-01,0.072
-1.14E-01,0.056
-1.14E-01,0.08
-1.14E-01,0.064
-1.14E-01,0.048
-1.14E-01,0.052
-1.13E-01,0.056
-1.13E-01,0.06
-1.13E-01,0.052
-1.13E-01,0.052
-1.13E-01,0.044
-1.12E-01,0.052
-1.12E-01,0.04
-1.12E-01,0.044
-1.12E-01,0.032
-1.12E-01,0.036
-1.11E-01,0.032
-1.11E-01,0.036
-1.11E-01,0.016
-1.11E-01,0.008
-1.11E-01,0
-1.10E-01,-0.004
-1.10E-01,0
-1.10E-01,-0.008
-1.10E-01,-0.012
-1.10E-01,-0.008
-1.09E-01,-0.004
-1.09E-01,0.004
-1.09E-01,0
-1.09E-01,-0.004
-1.09E-01,0.008
-1.08E-01,-0.004
-1.08E-01,0.004
-1.08E-01,-0.024
-1.08E-01,-0.008
-1.08E-01,-0.008
-1.07E-01,0.004
-1.07E-01,0
-1.07E-01,0
-1.07E-01,0.008
-1.07E-01,0.016
-1.06E-01,0.012
-1.06E-01,0.016
-1.06E-01,0.004
-1.06E-01,0.008
-1.06E-01,0.024
-1.05E-01,0.02
-1.05E-01,0.004
-1.05E-01,0.012
-1.05E-01,-0.008
-1.05E-01,-0.004
-1.04E-01,-0.016
-1.04E-01,-0.028
-1.04E-01,-0.024
-1.04E-01,-0.016
-1.04E-01,-0.032
-1.03E-01,-0.024
-1.03E-01,-0.04
-1.03E-01,-0.036
-1.03E-01,-0.044
-1.03E-01,-0.04
-1.02E-01,-0.04
-1.02E-01,-0.032
-1.02E-01,-0.016
-1.02E-01,-0.024
-1.02E-01,-0.024
-1.01E-01,-0.028
-1.01E-01,-0.044
-1.01E-01,-0.028
-1.01E-01,-0.024
-1.01E-01,-0.008
-1.00E-01,-0.028
-1.00E-01,-0.004
-1.00E-01,0.012
-9.98E-02,0.02
-9.96E-02,0.028
-9.94E-02,0.04
-9.92E-02,0.044
-9.90E-02,0.04
-9.88E-02,0.076
-9.86E-02,0.076
-9.84E-02,0.072
-9.82E-02,0.08
-9.80E-02,0.1
-9.78E-02,0.08
-9.76E-02,0.076
-9.74E-02,0.068
-9.72E-02,0.076
-9.70E-02,0.06
-9.68E-02,0.052
-9.66E-02,0.06
-9.64E-02,0.044
-9.62E-02,0.052
-9.60E-02,0.044
-9.58E-02,0.016
-9.56E-02,0.036
-9.54E-02,0.032
-9.52E-02,0.008
-9.50E-02,0.008
-9.48E-02,-0.016
-9.46E-02,-0.016
-9.44E-02,-0.024
-9.42E-02,-0.052
-9.40E-02,-0.052
-9.38E-02,-0.052
-9.36E-02,-0.056
-9.34E-02,-0.036
-9.32E-02,-0.036
-9.30E-02,-0.028
-9.28E-02,-0.06
-9.26E-02,-0.02
-9.24E-02,-0.036
-9.22E-02,-0.032
-9.20E-02,-0.04
-9.18E-02,-0.048
-9.16E-02,-0.052
-9.14E-02,-0.052
-9.12E-02,-0.08
-9.10E-02,-0.064
-9.08E-02,-0.056
-9.06E-02,-0.064
-9.04E-02,-0.06
-9.02E-02,-0.052
-9.00E-02,-0.048
-8.98E-02,-0.04
-8.96E-02,-0.04
-8.94E-02,-0.028
-8.92E-02,-0.04
-8.90E-02,-0.032
-8.88E-02,-0.048
-8.86E-02,-0.06
-8.84E-02,-0.068
-8.82E-02,-0.048
-8.80E-02,-0.064
-8.78E-02,-0.072
-8.76E-02,-0.06
-8.74E-02,-0.064
-8.72E-02,-0.04
-8.70E-02,-0.04
-8.68E-02,-0.044
-8.66E-02,-0.04
-8.64E-02,-0.016
-8.62E-02,-0.016
-8.60E-02,-0.024
-8.58E-02,0
-8.56E-02,0.028
-8.54E-02,0.056
-8.52E-02,0.08
-8.50E-02,0.072
-8.48E-02,0.1
-8.46E-02,0.108
-8.44E-02,0.132
-8.42E-02,0.132
-8.40E-02,0.132
-8.38E-02,0.148
-8.36E-02,0.152
-8.34E-02,0.152
-8.32E-02,0.156
-8.30E-02,0.136
-8.28E-02,0.16
-8.26E-02,0.156
-8.24E-02,0.144
-8.22E-02,0.16
-8.20E-02,0.16
-8.18E-02,0.152
-8.16E-02,0.16
-8.14E-02,0.156
-8.12E-02,0.168
-8.10E-02,0.168
-8.08E-02,0.184
-8.06E-02,0.192
-8.04E-02,0.188
-8.02E-02,0.172
-8.00E-02,0.184
-7.98E-02,0.184
-7.96E-02,0.176
-7.94E-02,0.164
-7.92E-02,0.144
-7.90E-02,0.148
-7.88E-02,0.112
-7.86E-02,0.072
-7.84E-02,0.084
-7.82E-02,0.068
-7.80E-02,0.04
-7.78E-02,0.02
-7.76E-02,-0.024
-7.74E-02,-0.012
-7.72E-02,-0.048
-7.70E-02,-0.048
-7.68E-02,-0.076
-7.66E-02,-0.08
-7.64E-02,-0.076
-7.62E-02,-0.088
-7.60E-02,-0.088
-7.58E-02,-0.104
-7.56E-02,-0.12
-7.54E-02,-0.116
-7.52E-02,-0.12
-7.50E-02,-0.128
-7.48E-02,-0.112
-7.46E-02,-0.128
-7.44E-02,-0.12
-7.42E-02,-0.128
-7.40E-02,-0.12
-7.38E-02,-0.12
-7.36E-02,-0.1
-7.34E-02,-0.08
-7.32E-02,-0.088
-7.30E-02,-0.076
-7.28E-02,-0.088
-7.26E-02,-0.088
-7.24E-02,-0.072
-7.22E-02,-0.088
-7.20E-02,-0.096
-7.18E-02,-0.08
-7.16E-02,-0.088
-7.14E-02,-0.092
-7.12E-02,-0.084
-7.10E-02,-0.08
-7.08E-02,-0.092
-7.06E-02,-0.108
-7.04E-02,-0.088
-7.02E-02,-0.096
-7.00E-02,-0.084
-6.98E-02,-0.092
-6.96E-02,-0.1
-6.94E-02,-0.092
-6.92E-02,-0.084
-6.90E-02,-0.064
-6.88E-02,-0.06
-6.86E-02,-0.048
-6.84E-02,-0.048
-6.82E-02,-0.048
-6.80E-02,-0.036
-6.78E-02,-0.016
-6.76E-02,-0.004
-6.74E-02,0.012
-6.72E-02,0.028
-6.70E-02,0.024
-6.68E-02,0.052
-6.66E-02,0.06
-6.64E-02,0.08
-6.62E-02,0.076
-6.60E-02,0.092
-6.58E-02,0.088
-6.56E-02,0.108
-6.54E-02,0.108
-6.52E-02,0.116
-6.50E-02,0.096
-6.48E-02,0.1
-6.46E-02,0.112
-6.44E-02,0.112
-6.42E-02,0.108
-6.40E-02,0.112
-6.38E-02,0.112
-6.36E-02,0.108
-6.34E-02,0.148
-6.32E-02,0.144
-6.30E-02,0.128
-6.28E-02,0.148
-6.26E-02,0.148
-6.24E-02,0.14
-6.22E-02,0.152
-6.20E-02,0.148
-6.18E-02,0.16
-6.16E-02,0.156
-6.14E-02,0.152
-6.12E-02,0.148
-6.10E-02,0.168
-6.08E-02,0.16
-6.06E-02,0.156
-6.04E-02,0.152
-6.02E-02,0.144
-6.00E-02,0.124
-5.98E-02,0.136
-5.96E-02,0.108
-5.94E-02,0.096
-5.92E-02,0.096
-5.90E-02,0.064
-5.88E-02,0.048
-5.86E-02,0.04
-5.84E-02,0.012
-5.82E-02,0.028
-5.80E-02,0.008
-5.78E-02,0.02
-5.76E-02,0.012
-5.74E-02,0
-5.72E-02,0
-5.70E-02,-0.02
-5.68E-02,-0.008
-5.66E-02,-0.016
-5.64E-02,-0.036
-5.62E-02,-0.032
-5.60E-02,-0.044
-5.58E-02,-0.044
-5.56E-02,-0.056
-5.54E-02,-0.064
-5.52E-02,-0.08
-5.50E-02,-0.088
-5.48E-02,-0.096
-5.46E-02,-0.108
-5.44E-02,-0.104
-5.42E-02,-0.12
-5.40E-02,-0.128
-5.38E-02,-0.116
-5.36E-02,-0.104
-5.34E-02,-0.112
-5.32E-02,-0.092
-5.30E-02,-0.088
-5.28E-02,-0.088
-5.26E-02,-0.088
-5.24E-02,-0.08
-5.22E-02,-0.088
-5.20E-02,-0.068
-5.18E-02,-0.084
-5.16E-02,-0.104
-5.14E-02,-0.096
-5.12E-02,-0.092
-5.10E-02,-0.096
-5.08E-02,-0.104
-5.06E-02,-0.112
-5.04E-02,-0.104
-5.02E-02,-0.112
-5.00E-02,-0.12
-4.98E-02,-0.1
-4.96E-02,-0.132
-4.94E-02,-0.12
-4.92E-02,-0.12
-4.90E-02,-0.136
-4.88E-02,-0.136
-4.86E-02,-0.136
-4.84E-02,-0.168
-4.82E-02,-0.18
-4.80E-02,-0.164
-4.78E-02,-0.188
-4.76E-02,-0.216
-4.74E-02,-0.196
-4.72E-02,-0.232
-4.70E-02,-0.228
-4.68E-02,-0.252
-4.66E-02,-0.26
-4.64E-02,-0.296
-4.62E-02,-0.288
-4.60E-02,-0.296
-4.58E-02,-0.336
-4.56E-02,-0.36
-4.54E-02,-0.36
-4.52E-02,-0.372
-4.50E-02,-0.4
-4.48E-02,-0.416
-4.46E-02,-0.424
-4.44E-02,-0.428
-4.42E-02,-0.44
-4.40E-02,-0.472
-4.38E-02,-0.48
-4.36E-02,-0.496
-4.34E-02,-0.512
-4.32E-02,-0.536
-4.30E-02,-0.572
-4.28E-02,-0.6
-4.26E-02,-0.624
-4.24E-02,-0.64
-4.22E-02,-0.672
-4.20E-02,-0.696
-4.18E-02,-0.724
-4.16E-02,-0.756
-4.14E-02,-0.788
-4.12E-02,-0.804
-4.10E-02,-0.836
-4.08E-02,-0.852
-4.06E-02,-0.86
-4.04E-02,-0.86
-4.02E-02,-0.868
-4.00E-02,-0.86
-3.98E-02,-0.892
-3.96E-02,-0.892
-3.94E-02,-0.892
-3.92E-02,-0.904
-3.90E-02,-0.916
-3.88E-02,-0.884
-3.86E-02,-0.896
-3.84E-02,-0.896
-3.82E-02,-0.88
-3.80E-02,-0.868
-3.78E-02,-0.864
-3.76E-02,-0.828
-3.74E-02,-0.828
-3.72E-02,-0.804
-3.70E-02,-0.796
-3.68E-02,-0.776
-3.66E-02,-0.772
-3.64E-02,-0.736
-3.62E-02,-0.744
-3.60E-02,-0.74
-3.58E-02,-0.712
-3.56E-02,-0.704
-3.54E-02,-0.692
-3.52E-02,-0.7
-3.50E-02,-0.672
-3.48E-02,-0.648
-3.46E-02,-0.628
-3.44E-02,-0.6
-3.42E-02,-0.588
-3.40E-02,-0.564
-3.38E-02,-0.536
-3.36E-02,-0.532
-3.34E-02,-0.532
-3.32E-02,-0.528
-3.30E-02,-0.512
-3.28E-02,-0.492
-3.26E-02,-0.496
-3.24E-02,-0.5
-3.22E-02,-0.512
-3.20E-02,-0.5
-3.18E-02,-0.52
-3.16E-02,-0.524
-3.14E-02,-0.524
-3.12E-02,-0.516
-3.10E-02,-0.512
-3.08E-02,-0.476
-3.06E-02,-0.468
-3.04E-02,-0.428
-3.02E-02,-0.44
-3.00E-02,-0.412
-2.98E-02,-0.384
-2.96E-02,-0.364
-2.94E-02,-0.344
-2.92E-02,-0.336
-2.90E-02,-0.324
-2.88E-02,-0.296
-2.86E-02,-0.316
-2.84E-02,-0.296
-2.82E-02,-0.28
-2.80E-02,-0.272
-2.78E-02,-0.272
-2.76E-02,-0.28
-2.74E-02,-0.28
-2.72E-02,-0.276
-2.70E-02,-0.288
-2.68E-02,-0.284
-2.66E-02,-0.3
-2.64E-02,-0.28
-2.62E-02,-0.288
-2.60E-02,-0.3
-2.58E-02,-0.288
-2.56E-02,-0.276
-2.54E-02,-0.284
-2.52E-02,-0.28
-2.50E-02,-0.292
-2.48E-02,-0.268
-2.46E-02,-0.26
-2.44E-02,-0.256
-2.42E-02,-0.256
-2.40E-02,-0.236
-2.38E-02,-0.22
-2.36E-02,-0.204
-2.34E-02,-0.184
-2.32E-02,-0.152
-2.30E-02,-0.144
-2.28E-02,-0.124
-2.26E-02,-0.124
-2.24E-02,-0.096
-2.22E-02,-0.076
-2.20E-02,-0.072
-2.18E-02,-0.048
-2.16E-02,-0.044
-2.14E-02,-0.044
-2.12E-02,-0.028
-2.10E-02,-0.004
-2.08E-02,0
-2.06E-02,0.032
-2.04E-02,0.028
-2.02E-02,0.068
-2.00E-02,0.088
-1.98E-02,0.1
-1.96E-02,0.112
-1.94E-02,0.112
-1.92E-02,0.14
-1.90E-02,0.164
-1.88E-02,0.172
-1.86E-02,0.18
-1.84E-02,0.204
-1.82E-02,0.228
-1.80E-02,0.224
-1.78E-02,0.24
-1.76E-02,0.26
-1.74E-02,0.288
-1.72E-02,0.296
-1.70E-02,0.308
-1.68E-02,0.312
-1.66E-02,0.352
-1.64E-02,0.356
-1.62E-02,0.372
-1.60E-02,0.376
-1.58E-02,0.38
-1.56E-02,0.408
-1.54E-02,0.42
-1.52E-02,0.412
-1.50E-02,0.428
-1.48E-02,0.428
-1.46E-02,0.432
-1.44E-02,0.448
-1.42E-02,0.456
-1.40E-02,0.468
-1.38E-02,0.456
-1.36E-02,0.496
-1.34E-02,0.5
-1.32E-02,0.524
-1.30E-02,0.532
-1.28E-02,0.536
-1.26E-02,0.572
-1.24E-02,0.576
-1.22E-02,0.58
-1.20E-02,0.596
-1.18E-02,0.616
-1.16E-02,0.616
-1.14E-02,0.632
-1.12E-02,0.64
-1.10E-02,0.648
-1.08E-02,0.668
-1.06E-02,0.648
-1.04E-02,0.66
-1.02E-02,0.656
-1.00E-02,0.648
-9.80E-03,0.632
-9.60E-03,0.616
-9.40E-03,0.62
-9.20E-03,0.608
-9.00E-03,0.604
-8.80E-03,0.572
-8.60E-03,0.58
-8.40E-03,0.572
-8.20E-03,0.576
-8.00E-03,0.552
-7.80E-03,0.552
-7.60E-03,0.564
-7.40E-03,0.564
-7.20E-03,0.56
-7.00E-03,0.556
-6.80E-03,0.552
-6.60E-03,0.572
-6.40E-03,0.564
-6.20E-03,0.54
-6.00E-03,0.532
-5.80E-03,0.548
-5.60E-03,0.54
-5.40E-03,0.556
-5.20E-03,0.532
-5.00E-03,0.532
-4.80E-03,0.544
-4.60E-03,0.572
-4.40E-03,0.56
-4.20E-03,0.572
-4.00E-03,0.572
-3.80E-03,0.58
-3.60E-03,0.592
-3.40E-03,0.616
-3.20E-03,0.592
-3.00E-03,0.608
-2.80E-03,0.592
-2.60E-03,0.6
-2.40E-03,0.604
-2.20E-03,0.6
-2.00E-03,0.6
-1.80E-03,0.608
-1.60E-03,0.596
-1.40E-03,0.6
-1.20E-03,0.592
-1.00E-03,0.608
-8.00E-04,0.588
-6.00E-04,0.588
-4.00E-04,0.592
-2.00E-04,0.588
0.00E+00,0.584
2.00E-04,0.588
4.00E-04,0.584
6.00E-04,0.576
8.00E-04,0.572
1.00E-03,0.572
1.20E-03,0.584
1.40E-03,0.568
1.60E-03,0.556
1.80E-03,0.556
2.00E-03,0.544
2.20E-03,0.548
2.40E-03,0.528
2.60E-03,0.52
2.80E-03,0.508
3.00E-03,0.5
3.20E-03,0.484
3.40E-03,0.476
3.60E-03,0.468
3.80E-03,0.452
4.00E-03,0.456
4.20E-03,0.44
4.40E-03,0.424
4.60E-03,0.404
4.80E-03,0.404
5.00E-03,0.388
5.20E-03,0.38
5.40E-03,0.38
5.60E-03,0.384
5.80E-03,0.388
6.00E-03,0.36
6.20E-03,0.352
6.40E-03,0.364
6.60E-03,0.348
6.80E-03,0.336
7.00E-03,0.316
7.20E-03,0.316
7.40E-03,0.28
7.60E-03,0.26
7.80E-03,0.24
8.00E-03,0.216
8.20E-03,0.2
8.40E-03,0.192
8.60E-03,0.164
8.80E-03,0.148
9.00E-03,0.172
9.20E-03,0.128
9.40E-03,0.124
9.60E-03,0.12
9.80E-03,0.108
1.00E-02,0.116
1.02E-02,0.096
1.04E-02,0.088
1.06E-02,0.096
1.08E-02,0.088
1.10E-02,0.08
1.12E-02,0.076
1.14E-02,0.092
1.16E-02,0.088
1.18E-02,0.076
1.20E-02,0.076
1.22E-02,0.06
1.24E-02,0.064
1.26E-02,0.064
1.28E-02,0.06
1.30E-02,0.056
1.32E-02,0.064
1.34E-02,0.048
1.36E-02,0.036
1.38E-02,0.028
1.40E-02,0.036
1.42E-02,0.024
1.44E-02,0.028
1.46E-02,0.032
1.48E-02,0.016
1.50E-02,0.008
1.52E-02,0.016
1.54E-02,-0.012
1.56E-02,-0.02
1.58E-02,-0.032
1.60E-02,-0.048
1.62E-02,-0.044
1.64E-02,-0.028
1.66E-02,-0.048
1.68E-02,-0.048
1.70E-02,-0.056
1.72E-02,-0.048
1.74E-02,-0.048
1.76E-02,-0.032
1.78E-02,-0.024
1.80E-02,-0.008
1.82E-02,0.008
1.84E-02,0.008
1.86E-02,0.008
1.88E-02,0.032
1.90E-02,0.036
1.92E-02,0.052
1.94E-02,0.044
1.96E-02,0.052
1.98E-02,0.052
2.00E-02,0.048
2.02E-02,0.06
2.04E-02,0.056
2.06E-02,0.04
2.08E-02,0.056
2.10E-02,0.052
2.12E-02,0.064
2.14E-02,0.064
2.16E-02,0.076
2.18E-02,0.08
2.20E-02,0.096
2.22E-02,0.088
2.24E-02,0.076
2.26E-02,0.084
2.28E-02,0.06
2.30E-02,0.04
2.32E-02,0.024
2.34E-02,0.012
2.36E-02,-0.008
2.38E-02,-0.012
2.40E-02,-0.024
2.42E-02,-0.052
2.44E-02,-0.056
2.46E-02,-0.068
2.48E-02,-0.08
2.50E-02,-0.08
2.52E-02,-0.08
2.54E-02,-0.06
2.56E-02,-0.06
2.58E-02,-0.068
2.60E-02,-0.084
2.62E-02,-0.076
2.64E-02,-0.068
2.66E-02,-0.084
2.68E-02,-0.084
2.70E-02,-0.072
2.72E-02,-0.08
2.74E-02,-0.08
2.76E-02,-0.084
2.78E-02,-0.072
2.80E-02,-0.068
2.82E-02,-0.06
2.84E-02,-0.072
2.86E-02,-0.056
2.88E-02,-0.06
2.90E-02,-0.044
2.92E-02,-0.06
2.94E-02,-0.04
2.96E-02,-0.028
2.98E-02,-0.032
3.00E-02,-0.02
3.02E-02,-0.028
3.04E-02,-0.008
3.06E-02,-0.016
3.08E-02,-0.012
3.10E-02,-0.008
3.12E-02,0
3.14E-02,0
3.16E-02,0
3.18E-02,0.012
3.20E-02,0.016
3.22E-02,0.008
3.24E-02,0.024
3.26E-02,0.028
3.28E-02,0.032
3.30E-02,0.048
3.32E-02,0.048
3.34E-02,0.064
3.36E-02,0.072
3.38E-02,0.084
3.40E-02,0.064
3.42E-02,0.068
3.44E-02,0.076
3.46E-02,0.068
3.48E-02,0.056
3.50E-02,0.048
3.52E-02,0.052
3.54E-02,0.04
3.56E-02,0.016
3.58E-02,0.012
3.60E-02,-0.016
3.62E-02,-0.02
3.64E-02,0
3.66E-02,-0.024
3.68E-02,-0.012
3.70E-02,-0.004
3.72E-02,-0.02
3.74E-02,0.004
3.76E-02,0.008
3.78E-02,-0.024
3.80E-02,0.008
3.82E-02,0.016
3.84E-02,-0.016
3.86E-02,-0.024
3.88E-02,-0.016
3.90E-02,-0.028
3.92E-02,-0.032
3.94E-02,-0.044
3.96E-02,-0.052
3.98E-02,-0.068
4.00E-02,-0.064
4.02E-02,-0.072
4.04E-02,-0.084
4.06E-02,-0.088
4.08E-02,-0.104
4.10E-02,-0.096
4.12E-02,-0.096
4.14E-02,-0.092
4.16E-02,-0.096
4.18E-02,-0.088
4.20E-02,-0.104
4.22E-02,-0.1
4.24E-02,-0.104
4.26E-02,-0.104
4.28E-02,-0.124
4.30E-02,-0.116
4.32E-02,-0.144
4.34E-02,-0.128
4.36E-02,-0.136
4.38E-02,-0.132
4.40E-02,-0.152
4.42E-02,-0.132
4.44E-02,-0.136
4.46E-02,-0.136
4.48E-02,-0.136
4.50E-02,-0.132
4.52E-02,-0.12
4.54E-02,-0.124
4.56E-02,-0.124
4.58E-02,-0.14
4.60E-02,-0.108
4.62E-02,-0.088
4.64E-02,-0.104
4.66E-02,-0.092
4.68E-02,-0.084
4.70E-02,-0.088
4.72E-02,-0.096
4.74E-02,-0.1
4.76E-02,-0.108
4.78E-02,-0.112
4.80E-02,-0.096
4.82E-02,-0.124
4.84E-02,-0.124
4.86E-02,-0.104
4.88E-02,-0.096
4.90E-02,-0.072
4.92E-02,-0.064
4.94E-02,-0.072
4.96E-02,-0.044
4.98E-02,-0.028
5.00E-02,-0.012
5.02E-02,-0.024
5.04E-02,-0.024
5.06E-02,-0.004
5.08E-02,0.008
5.10E-02,0.004
5.12E-02,0.008
5.14E-02,0.012
5.16E-02,0.008
5.18E-02,0.008
5.20E-02,0.02
5.22E-02,0
5.24E-02,0.008
5.26E-02,0.012
5.28E-02,0
5.30E-02,-0.004
5.32E-02,-0.004
5.34E-02,0.008
5.36E-02,0.012
5.38E-02,0
5.40E-02,-0.012
5.42E-02,-0.02
5.44E-02,-0.016
5.46E-02,-0.02
5.48E-02,-0.028
5.50E-02,-0.024
5.52E-02,-0.048
5.54E-02,-0.036
5.56E-02,-0.04
5.58E-02,-0.032
5.60E-02,-0.04
5.62E-02,-0.048
5.64E-02,-0.04
5.66E-02,-0.044
5.68E-02,-0.04
5.70E-02,-0.048
5.72E-02,-0.056
5.74E-02,-0.052
5.76E-02,-0.076
5.78E-02,-0.076
5.80E-02,-0.088
5.82E-02,-0.088
5.84E-02,-0.1
5.86E-02,-0.08
5.88E-02,-0.1
5.90E-02,-0.084
5.92E-02,-0.096
5.94E-02,-0.12
5.96E-02,-0.108
5.98E-02,-0.116
6.00E-02,-0.124
6.02E-02,-0.112
6.04E-02,-0.108
6.06E-02,-0.136
6.08E-02,-0.096
6.10E-02,-0.128
6.12E-02,-0.132
6.14E-02,-0.128
6.16E-02,-0.108
6.18E-02,-0.112
6.20E-02,-0.12
6.22E-02,-0.124
6.24E-02,-0.108
6.26E-02,-0.108
6.28E-02,-0.092
6.30E-02,-0.108
6.32E-02,-0.088
6.34E-02,-0.076
6.36E-02,-0.088
6.38E-02,-0.092
6.40E-02,-0.084
6.42E-02,-0.084
6.44E-02,-0.056
6.46E-02,-0.076
6.48E-02,-0.064
6.50E-02,-0.064
6.52E-02,-0.04
6.54E-02,-0.02
6.56E-02,-0.028
6.58E-02,-0.016
6.60E-02,-0.004
6.62E-02,0
6.64E-02,0.036
6.66E-02,0.036
6.68E-02,0.04
6.70E-02,0.06
6.72E-02,0.064
6.74E-02,0.092
6.76E-02,0.096
6.78E-02,0.128
6.80E-02,0.14
6.82E-02,0.152
6.84E-02,0.16
6.86E-02,0.156
6.88E-02,0.152
6.90E-02,0.16
6.92E-02,0.168
6.94E-02,0.152
6.96E-02,0.152
6.98E-02,0.148
7.00E-02,0.14
7.02E-02,0.124
7.04E-02,0.1
7.06E-02,0.088
7.08E-02,0.048
7.10E-02,0.052
7.12E-02,0.028
7.14E-02,0
7.16E-02,-0.02
7.18E-02,-0.032
7.20E-02,-0.06
7.22E-02,-0.06
7.24E-02,-0.072
7.26E-02,-0.088
7.28E-02,-0.08
7.30E-02,-0.092
7.32E-02,-0.12
7.34E-02,-0.112
7.36E-02,-0.112
7.38E-02,-0.128
7.40E-02,-0.136
7.42E-02,-0.132
7.44E-02,-0.148
7.46E-02,-0.168
7.48E-02,-0.18
7.50E-02,-0.18
7.52E-02,-0.192
7.54E-02,-0.192
7.56E-02,-0.2
7.58E-02,-0.196
7.60E-02,-0.216
7.62E-02,-0.216
7.64E-02,-0.2
7.66E-02,-0.212
7.68E-02,-0.208
7.70E-02,-0.188
7.72E-02,-0.18
7.74E-02,-0.188
7.76E-02,-0.176
7.78E-02,-0.192
7.80E-02,-0.18
7.82E-02,-0.18
7.84E-02,-0.176
7.86E-02,-0.18
7.88E-02,-0.184
7.90E-02,-0.168
7.92E-02,-0.184
7.94E-02,-0.18
7.96E-02,-0.144
7.98E-02,-0.136
8.00E-02,-0.112
8.02E-02,-0.1
8.04E-02,-0.104
8.06E-02,-0.08
8.08E-02,-0.072
8.10E-02,-0.064
8.12E-02,-0.084
8.14E-02,-0.056
8.16E-02,-0.064
8.18E-02,-0.06
8.20E-02,-0.032
8.22E-02,-0.028
8.24E-02,-0.004
8.26E-02,0.024
8.28E-02,0.008
8.30E-02,0.02
8.32E-02,0.032
8.34E-02,0.032
8.36E-02,0.044
8.38E-02,0.056
8.40E-02,0.052
8.42E-02,0.06
8.44E-02,0.064
8.46E-02,0.072
8.48E-02,0.068
8.50E-02,0.052
8.52E-02,0.056
8.54E-02,0.076
8.56E-02,0.056
8.58E-02,0.076
8.60E-02,0.072
8.62E-02,0.068
8.64E-02,0.096
8.66E-02,0.08
8.68E-02,0.064
8.70E-02,0.096
8.72E-02,0.088
8.74E-02,0.076
8.76E-02,0.072
8.78E-02,0.056
8.80E-02,0.036
8.82E-02,0.044
8.84E-02,0.016
8.86E-02,-0.004
8.88E-02,-0.008
8.90E-02,-0.016
8.92E-02,-0.016
8.94E-02,-0.028
8.96E-02,-0.032
8.98E-02,-0.036
9.00E-02,-0.044
9.02E-02,-0.044
9.04E-02,-0.072
9.06E-02,-0.064
9.08E-02,-0.052
9.10E-02,-0.076
9.12E-02,-0.076
9.14E-02,-0.076
9.16E-02,-0.08
9.18E-02,-0.096
9.20E-02,-0.092
9.22E-02,-0.116
9.24E-02,-0.092
9.26E-02,-0.084
9.28E-02,-0.096
9.30E-02,-0.084
9.32E-02,-0.072
9.34E-02,-0.044
9.36E-02,-0.052
9.38E-02,-0.044
9.40E-02,-0.044
9.42E-02,-0.036
9.44E-02,-0.04
9.46E-02,-0.04
9.48E-02,-0.064
9.50E-02,-0.092
9.52E-02,-0.064
9.54E-02,-0.092
9.56E-02,-0.064
9.58E-02,-0.068
9.60E-02,-0.068
9.62E-02,-0.024
9.64E-02,-0.004
9.66E-02,-0.004
9.68E-02,0.028
9.70E-02,0.04
9.72E-02,0.032
9.74E-02,0.04
9.76E-02,0.036
9.78E-02,0.012
9.80E-02,0.036
9.82E-02,0.024
9.84E-02,0.004
9.86E-02,0.012
9.88E-02,0
9.90E-02,0
9.92E-02,-0.012
9.94E-02,-0.008
9.96E-02,-0.028
9.98E-02,-0.024
1.00E-01,-0.04
1.00E-01,-0.032
1.00E-01,-0.028
1.01E-01,-0.024
1.01E-01,-0.028
1.01E-01,-0.04
1.01E-01,-0.04
1.01E-01,-0.028
1.02E-01,-0.044
1.02E-01,-0.028
1.02E-01,-0.012
1.02E-01,-0.04
1.02E-01,-0.04
1.03E-01,-0.036
1.03E-01,-0.048
1.03E-01,-0.056
1.03E-01,-0.064
1.03E-01,-0.08
1.04E-01,-0.064
1.04E-01,-0.064
1.04E-01,-0.056
1.04E-01,-0.052
1.04E-01,-0.052
1.05E-01,-0.048
1.05E-01,-0.04
1.05E-01,-0.052
1.05E-01,-0.036
1.05E-01,-0.044
1.06E-01,-0.044
1.06E-01,-0.056
1.06E-01,-0.048
1.06E-01,-0.06
1.06E-01,-0.068
1.07E-01,-0.112
1.07E-01,-0.092
1.07E-01,-0.108
1.07E-01,-0.112
1.07E-01,-0.108
1.08E-01,-0.108
1.08E-01,-0.144
1.08E-01,-0.112
1.08E-01,-0.128
1.08E-01,-0.156
1.09E-01,-0.136
1.09E-01,-0.128
1.09E-01,-0.14
1.09E-01,-0.128
1.09E-01,-0.144
1.10E-01,-0.136
1.10E-01,-0.132
1.10E-01,-0.12
1.10E-01,-0.152
1.10E-01,-0.12
1.11E-01,-0.108
1.11E-01,-0.108
1.11E-01,-0.108
1.11E-01,-0.104
1.11E-01,-0.072
1.12E-01,-0.076
1.12E-01,-0.076
1.12E-01,-0.076
1.12E-01,-0.076
1.12E-01,-0.076
1.13E-01,-0.072
1.13E-01,-0.068
1.13E-01,-0.076
1.13E-01,-0.076
1.13E-01,-0.056
1.14E-01,-0.048
1.14E-01,-0.056
1.14E-01,-0.068
1.14E-01,-0.048
1.14E-01,-0.024
1.15E-01,-0.044
1.15E-01,-0.024
1.15E-01,-0.016
1.15E-01,-0.008
1.15E-01,-0.004
1.16E-01,-0.004
1.16E-01,0.024
1.16E-01,0.04
1.16E-01,0.036
1.16E-01,0.024
1.17E-01,0.036
1.17E-01,0.052
1.17E-01,0.048
1.17E-01,0.044
1.17E-01,0.052
1.18E-01,0.048
1.18E-01,0.06
1.18E-01,0.056
1.18E-01,0.044
1.18E-01,0.044
1.19E-01,0.044
1.19E-01,0.028
1.19E-01,0.02
1.19E-01,0.016
1.19E-01,0.016
1.20E-01,0
1.20E-01,-0.008
1.20E-01,-0.012
1.20E-01,-0.04
1.20E-01,-0.048
1.21E-01,-0.04
1.21E-01,-0.036
1.21E-01,-0.064
1.21E-01,-0.072
1.21E-01,-0.076
1.22E-01,-0.084
1.22E-01,-0.084
1.22E-01,-0.096
1.22E-01,-0.12
1.22E-01,-0.096
1.23E-01,-0.096
1.23E-01,-0.136
1.23E-01,-0.112
1.23E-01,-0.112
1.23E-01,-0.136
1.24E-01,-0.124
1.24E-01,-0.128
1.24E-01,-0.128
1.24E-01,-0.12
1.24E-01,-0.128
1.25E-01,-0.12
1.25E-01,-0.136
1.25E-01,-0.132
1.25E-01,-0.128
1.25E-01,-0.132
1.26E-01,-0.14
1.26E-01,-0.132
1.26E-01,-0.128
1.26E-01,-0.132
1.26E-01,-0.14
1.27E-01,-0.116
1.27E-01,-0.12
1.27E-01,-0.116
1.27E-01,-0.116
1.27E-01,-0.112
1.28E-01,-0.112
1.28E-01,-0.12
1.28E-01,-0.112
1.28E-01,-0.112
1.28E-01,-0.124
1.29E-01,-0.12
1.29E-01,-0.132
1.29E-01,-0.128
1.29E-01,-0.124
1.29E-01,-0.128
1.30E-01,-0.136
1.30E-01,-0.124
1.30E-01,-0.128
1.30E-01,-0.12
1.30E-01,-0.108
1.31E-01,-0.12
1.31E-01,-0.12
1.31E-01,-0.116
1.31E-01,-0.128
1.31E-01,-0.08
1.32E-01,-0.072
1.32E-01,-0.084
1.32E-01,-0.072
1.32E-01,-0.064
1.32E-01,-0.048
1.33E-01,-0.024
1.33E-01,-0.028
1.33E-01,-0.012
1.33E-01,0
1.33E-01,0.02
1.34E-01,0.02
1.34E-01,-0.004
1.34E-01,0.008
1.34E-01,0.012
1.34E-01,-0.004
1.35E-01,-0.016
1.35E-01,-0.012
1.35E-01,-0.024
1.35E-01,-0.032
1.35E-01,-0.016
1.36E-01,-0.052
1.36E-01,-0.048
1.36E-01,-0.044
1.36E-01,-0.04
1.36E-01,-0.028
1.37E-01,-0.032
1.37E-01,-0.04
1.37E-01,-0.02
1.37E-01,-0.012
1.37E-01,-0.02
1.38E-01,-0.028
1.38E-01,-0.012
1.38E-01,-0.004
1.38E-01,-0.004
1.38E-01,-0.012
1.39E-01,-0.028
1.39E-01,-0.024
1.39E-01,-0.012
1.39E-01,-0.016
1.39E-01,-0.036
1.40E-01,-0.02
1.40E-01,-0.02
1.40E-01,-0.044
1.40E-01,-0.02
1.40E-01,-0.016
1.41E-01,-0.028
1.41E-01,-0.024
1.41E-01,-0.032
1.41E-01,-0.052
1.41E-01,-0.04
1.42E-01,-0.044
1.42E-01,-0.068
1.42E-01,-0.072
1.42E-01,-0.076
1.42E-01,-0.076
1.43E-01,-0.08
1.43E-01,-0.088
1.43E-01,-0.088
1.43E-01,-0.092
1.43E-01,-0.1
1.44E-01,-0.092
1.44E-01,-0.112
1.44E-01,-0.128
1.44E-01,-0.136
1.44E-01,-0.148
1.45E-01,-0.152
1.45E-01,-0.148
1.45E-01,-0.168
1.45E-01,-0.152
1.45E-01,-0.156
1.46E-01,-0.156
1.46E-01,-0.12
1.46E-01,-0.128
1.46E-01,-0.132
1.46E-01,-0.12
1.47E-01,-0.112
1.47E-01,-0.104
1.47E-01,-0.084
1.47E-01,-0.084
1.47E-01,-0.088
1.48E-01,-0.064
1.48E-01,-0.064
1.48E-01,-0.048
1.48E-01,-0.044
1.48E-01,-0.02
1.49E-01,-0.016
1.49E-01,0
1.49E-01,-0.024
1.49E-01,-0.028
1.49E-01,-0.048
1.50E-01,-0.04
1.50E-01,-0.044
1.50E-01,-0.076
1.50E-01,-0.08
1.50E-01,-0.088
1.51E-01,-0.116
1.51E-01,-0.108
1.51E-01,-0.12
1.51E-01,-0.12
1.51E-01,-0.1
1.52E-01,-0.088
1.52E-01,-0.088
1.52E-01,-0.048
1.52E-01,-0.072
1.52E-01,-0.056
1.53E-01,-0.064
1.53E-01,-0.06
1.53E-01,-0.068
1.53E-01,-0.048
1.53E-01,-0.072
1.54E-01,-0.024
1.54E-01,-0.044
1.54E-01,-0.036
1.54E-01,-0.028
1.54E-01,-0.044
1.55E-01,-0.048
1.55E-01,-0.044
1.55E-01,-0.064
1.55E-01,-0.068
1.55E-01,-0.068
1.56E-01,-0.084
1.56E-01,-0.084
1.56E-01,-0.092
1.56E-01,-0.1
1.56E-01,-0.092
1.57E-01,-0.096
1.57E-01,-0.112
1.57E-01,-0.084
1.57E-01,-0.112
1.57E-01,-0.14
1.58E-01,-0.132
1.58E-01,-0.152
1.58E-01,-0.148
1.58E-01,-0.156
1.58E-01,-0.168
1.59E-01,-0.164
1.59E-01,-0.164
1.59E-01,-0.156
1.59E-01,-0.184
1.59E-01,-0.172
1.60E-01,-0.184
1.60E-01,-0.2
1.60E-01,-0.208
1.60E-01,-0.22
1.60E-01,-0.224
1.61E-01,-0.24
1.61E-01,-0.24
1.61E-01,-0.244
1.61E-01,-0.24
1.61E-01,-0.236
1.62E-01,-0.224
1.62E-01,-0.232
1.62E-01,-0.236
1.62E-01,-0.208
1.62E-01,-0.204
1.63E-01,-0.188
1.63E-01,-0.164
1.63E-01,-0.168
1.63E-01,-0.128
1.63E-01,-0.112
1.64E-01,-0.092
1.64E-01,-0.08
1.64E-01,-0.076
1.64E-01,-0.048
1.64E-01,-0.052
1.65E-01,-0.044
1.65E-01,-0.028
1.65E-01,-0.028
1.65E-01,-0.008
1.65E-01,-0.024
1.66E-01,-0.036
1.66E-01,-0.024
1.66E-01,-0.016
1.66E-01,-0.016
1.66E-01,-0.016
1.67E-01,-0.044
1.67E-01,-0.016
1.67E-01,-0.012
1.67E-01,-0.036
1.67E-01,-0.052
1.68E-01,-0.048
1.68E-01,-0.048
1.68E-01,-0.052
1.68E-01,-0.048
1.68E-01,-0.064
1.69E-01,-0.064
1.69E-01,-0.052
1.69E-01,-0.064
1.69E-01,-0.068
1.69E-01,-0.06
1.70E-01,-0.076
1.70E-01,-0.068
1.70E-01,-0.096
1.70E-01,-0.088
1.70E-01,-0.108
1.71E-01,-0.124
1.71E-01,-0.124
1.71E-01,-0.128
1.71E-01,-0.148
1.71E-01,-0.144
1.72E-01,-0.148
1.72E-01,-0.156
1.72E-01,-0.156
1.72E-01,-0.18
1.72E-01,-0.184
1.73E-01,-0.144
1.73E-01,-0.16
1.73E-01,-0.144
1.73E-01,-0.12
1.73E-01,-0.128
1.74E-01,-0.132
1.74E-01,-0.124
1.74E-01,-0.144
1.74E-01,-0.132
1.74E-01,-0.148
1.75E-01,-0.156
1.75E-01,-0.168
1.75E-01,-0.172
1.75E-01,-0.196
1.75E-01,-0.188
1.76E-01,-0.208
1.76E-01,-0.22
1.76E-01,-0.228
1.76E-01,-0.236
1.76E-01,-0.252
1.77E-01,-0.252
1.77E-01,-0.26
1.77E-01,-0.244
1.77E-01,-0.264
1.77E-01,-0.276
1.78E-01,-0.26
1.78E-01,-0.276
1.78E-01,-0.26
1.78E-01,-0.256
1.78E-01,-0.272
1.79E-01,-0.24
1.79E-01,-0.212
1.79E-01,-0.216
1.79E-01,-0.2
1.79E-01,-0.188
1.80E-01,-0.208
1.80E-01,-0.2
1.80E-01,-0.2
1.80E-01,-0.188
1.80E-01,-0.184
1.81E-01,-0.168
1.81E-01,-0.168
1.81E-01,-0.164
1.81E-01,-0.132
1.81E-01,-0.128
1.82E-01,-0.092
1.82E-01,-0.068
1.82E-01,-0.032
1.82E-01,-0.028
1.82E-01,-0.004
1.83E-01,0.012
1.83E-01,0.012
1.83E-01,0.008
1.83E-01,0
1.83E-01,0
1.84E-01,-0.004
1.84E-01,-0.004
1.84E-01,-0.028
1.84E-01,-0.024
1.84E-01,-0.028
1.85E-01,-0.012
1.85E-01,-0.024
1.85E-01,-0.008
1.85E-01,0
1.85E-01,0.004
1.86E-01,-0.004
1.86E-01,0.004
1.86E-01,-0.012
1.86E-01,0
1.86E-01,-0.02
1.87E-01,-0.044
1.87E-01,-0.032
1.87E-01,-0.048
1.87E-01,-0.052
1.87E-01,-0.044
1.88E-01,-0.064
1.88E-01,-0.06
1.88E-01,-0.056
1.88E-01,-0.056
1.88E-01,-0.06
1.89E-01,-0.056
1.89E-01,-0.064
1.89E-01,-0.068
1.89E-01,-0.064
1.89E-01,-0.076
1.90E-01,-0.072
1.90E-01,-0.076
1.90E-01,-0.072
1.90E-01,-0.084
1.90E-01,-0.088
1.91E-01,-0.096
1.91E-01,-0.104
1.91E-01,-0.12
1.91E-01,-0.108
1.91E-01,-0.116
1.92E-01,-0.108
1.92E-01,-0.128
1.92E-01,-0.14
1.92E-01,-0.132
1.92E-01,-0.12
1.93E-01,-0.124
1.93E-01,-0.132
1.93E-01,-0.112
1.93E-01,-0.088
1.93E-01,-0.096
1.94E-01,-0.08
1.94E-01,-0.068
1.94E-01,-0.052
1.94E-01,-0.04
1.94E-01,-0.048
1.95E-01,-0.052
1.95E-01,-0.028
1.95E-01,-0.04
1.95E-01,-0.028
1.95E-01,-0.04
1.96E-01,0
1.96E-01,-0.012
1.96E-01,0.004
1.96E-01,0.012
1.96E-01,-0.008
1.97E-01,0.02
1.97E-01,0.016
1.97E-01,0.028
1.97E-01,0.032
1.97E-01,0.016
1.98E-01,0.036
1.98E-01,0.04
1.98E-01,0.032
1.98E-01,0.032
1.98E-01,0.048
1.99E-01,0.04
1.99E-01,0.072
1.99E-01,0.064
1.99E-01,0.076
1.99E-01,0.08
2.00E-01,0.072
2.00E-01,0.076
2.00E-01,0.064
2.00E-01,0.06
2.00E-01,0.076
2.01E-01,0.076
2.01E-01,0.06
2.01E-01,0.064
2.01E-01,0.072
2.01E-01,0.056
2.02E-01,0.064
2.02E-01,0.048
2.02E-01,0.064
2.02E-01,0.076
2.02E-01,0.088
2.03E-01,0.096
2.03E-01,0.08
2.03E-01,0.1
2.03E-01,0.112
2.03E-01,0.1
2.04E-01,0.092
2.04E-01,0.096
2.04E-01,0.104
2.04E-01,0.084
2.04E-01,0.1
2.05E-01,0.096
2.05E-01,0.08
2.05E-01,0.104
2.05E-01,0.08
2.05E-01,0.088
2.06E-01,0.108
2.06E-01,0.108
2.06E-01,0.104
2.06E-01,0.088
2.06E-01,0.076
2.07E-01,0.064
2.07E-01,0.084
2.07E-01,0.064
2.07E-01,0.056
2.07E-01,0.044
2.08E-01,0.032
2.08E-01,0.028
2.08E-01,0.012
2.08E-01,-0.004
2.08E-01,-0.008
2.09E-01,-0.02
2.09E-01,-0.028
2.09E-01,-0.024
2.09E-01,-0.036
2.09E-01,-0.052
2.10E-01,-0.056
2.10E-01,-0.052
2.10E-01,-0.056
2.10E-01,-0.068
2.10E-01,-0.048
2.11E-01,-0.04
2.11E-01,-0.048
2.11E-01,-0.024
2.11E-01,-0.044
2.11E-01,-0.02
2.12E-01,-0.012
2.12E-01,-0.008
2.12E-01,0.024
2.12E-01,0.028
2.12E-01,0.016
2.13E-01,0.032
2.13E-01,0.048
2.13E-01,0.064
2.13E-01,0.06
2.13E-01,0.072
2.14E-01,0.08
2.14E-01,0.084
2.14E-01,0.072
2.14E-01,0.084
2.14E-01,0.064
2.15E-01,0.068
2.15E-01,0.06
2.15E-01,0.052
2.15E-01,0.048
2.15E-01,0.056
2.16E-01,0.032
2.16E-01,0.052
2.16E-01,0.048
2.16E-01,0.044
2.16E-01,0.048
2.17E-01,0.06
2.17E-01,0.068
2.17E-01,0.076
2.17E-01,0.08
2.17E-01,0.092
2.18E-01,0.088
2.18E-01,0.1
2.18E-01,0.1
2.18E-01,0.104
2.18E-01,0.088
2.19E-01,0.112
2.19E-01,0.128
2.19E-01,0.124
2.19E-01,0.136
2.19E-01,0.144
2.20E-01,0.136
2.20E-01,0.156
2.20E-01,0.132
2.20E-01,0.128
2.20E-01,0.136
2.21E-01,0.116
2.21E-01,0.12
2.21E-01,0.116
2.21E-01,0.12
2.21E-01,0.12
2.22E-01,0.124
2.22E-01,0.112
2.22E-01,0.1
2.22E-01,0.104
2.22E-01,0.096
2.23E-01,0.088
2.23E-01,0.096
2.23E-01,0.072
2.23E-01,0.072
2.23E-01,0.08
2.24E-01,0.088
2.24E-01,0.068
2.24E-01,0.072
2.24E-01,0.068
2.24E-01,0.072
2.25E-01,0.072
2.25E-01,0.06
2.25E-01,0.06
2.25E-01,0.044
2.25E-01,0.048
2.26E-01,0.04
2.26E-01,0.052
2.26E-01,0.052
2.26E-01,0.056
2.26E-01,0.064
2.27E-01,0.072
2.27E-01,0.064
2.27E-01,0.088
2.27E-01,0.088
2.27E-01,0.088
2.28E-01,0.1
2.28E-01,0.096
2.28E-01,0.08
2.28E-01,0.076
2.28E-01,0.08
2.29E-01,0.092
2.29E-01,0.088
2.29E-01,0.076
2.29E-01,0.064
2.29E-01,0.088
2.30E-01,0.088
2.30E-01,0.072
2.30E-01,0.076
2.30E-01,0.104
2.30E-01,0.088
2.31E-01,0.088
2.31E-01,0.088
2.31E-01,0.096
2.31E-01,0.104
2.31E-01,0.112
2.32E-01,0.1
2.32E-01,0.112
2.32E-01,0.112
2.32E-01,0.128
2.32E-01,0.136
2.33E-01,0.136
2.33E-01,0.144
2.33E-01,0.144
2.33E-01,0.172
2.33E-01,0.164
2.34E-01,0.164
2.34E-01,0.16
2.34E-01,0.172
2.34E-01,0.192
2.34E-01,0.184
2.35E-01,0.184
2.35E-01,0.192
2.35E-01,0.192
2.35E-01,0.204
2.35E-01,0.196
2.36E-01,0.192
2.36E-01,0.196
2.36E-01,0.196
2.36E-01,0.172
2.36E-01,0.168
2.37E-01,0.144
2.37E-01,0.14
2.37E-01,0.152
2.37E-01,0.136
2.37E-01,0.12
2.38E-01,0.104
2.38E-01,0.124
2.38E-01,0.128
2.38E-01,0.124
2.38E-01,0.132
2.39E-01,0.144
2.39E-01,0.156
2.39E-01,0.152
2.39E-01,0.152
2.39E-01,0.148
2.40E-01,0.156
2.40E-01,0.16
2.40E-01,0.144
2.40E-01,0.128
2.40E-01,0.144
2.41E-01,0.136
2.41E-01,0.148
2.41E-01,0.132
2.41E-01,0.16
2.41E-01,0.136
2.42E-01,0.136
2.42E-01,0.108
2.42E-01,0.096
2.42E-01,0.08
2.42E-01,0.08
2.43E-01,0.072
2.43E-01,0.052
2.43E-01,0.028
2.43E-01,0.036
2.43E-01,0.012
2.44E-01,-0.008
2.44E-01,0.008
2.44E-01,0
2.44E-01,0.02
2.44E-01,0.032
2.45E-01,0.012
2.45E-01,0.032
2.45E-01,0.04
2.45E-01,0.032
2.45E-01,0.032
2.46E-01,0.044
2.46E-01,0.052
2.46E-01,0.048
2.46E-01,0.06
2.46E-01,0.056
2.47E-01,0.064
2.47E-01,0.096
2.47E-01,0.1
2.47E-01,0.096
2.47E-01,0.128
2.48E-01,0.148
2.48E-01,0.164
2.48E-01,0.18
2.48E-01,0.196
2.48E-01,0.196
2.49E-01,0.216
2.49E-01,0.22
2.49E-01,0.224
2.49E-01,0.228
2.49E-01,0.24
2.50E-01,0.248
2.50E-01,0.228
2.50E-01,0.248
2.50E-01,0.228
2.50E-01,0.224
2.51E-01,0.22
2.51E-01,0.2
2.51E-01,0.18
2.51E-01,0.188
2.51E-01,0.168
2.52E-01,0.176
2.52E-01,0.148
2.52E-01,0.148
2.52E-01,0.164
2.52E-01,0.164
2.53E-01,0.168
2.53E-01,0.16
2.53E-01,0.144
2.53E-01,0.14
2.53E-01,0.144
2.54E-01,0.144
2.54E-01,0.136
2.54E-01,0.124
2.54E-01,0.116
2.54E-01,0.148
2.55E-01,0.132
2.55E-01,0.124
2.55E-01,0.136
2.55E-01,0.148
2.55E-01,0.152
2.56E-01,0.16
2.56E-01,0.16
2.56E-01,0.164
2.56E-01,0.172
2.56E-01,0.152
2.57E-01,0.144
2.57E-01,0.132
2.57E-01,0.144
2.57E-01,0.112
2.57E-01,0.132
2.58E-01,0.112
2.58E-01,0.112
2.58E-01,0.104
2.58E-01,0.096
2.58E-01,0.06
2.59E-01,0.06
2.59E-01,0.044
2.59E-01,0.044
2.59E-01,0.028
2.59E-01,0.024
2.60E-01,0.012
2.60E-01,0.016
2.60E-01,0.012
2.60E-01,0.008
2.60E-01,0
2.61E-01,0.012
2.61E-01,0.012
2.61E-01,0.012
2.61E-01,0.004
2.61E-01,0.012
2.62E-01,0.004
2.62E-01,-0.004
2.62E-01,-0.004
2.62E-01,-0.004
2.62E-01,0.02
2.63E-01,0.012
2.63E-01,0.012
2.63E-01,0.016
2.63E-01,0.012
2.63E-01,0.02
2.64E-01,0.008
2.64E-01,0.016
2.64E-01,0
2.64E-01,0.012
2.64E-01,0.016
2.65E-01,0.004
2.65E-01,0.044
2.65E-01,0.048
2.65E-01,0.028
2.65E-01,0.068
2.66E-01,0.072
2.66E-01,0.048
2.66E-01,0.088
2.66E-01,0.084
2.66E-01,0.084
2.67E-01,0.108
2.67E-01,0.104
2.67E-01,0.108
2.67E-01,0.112
2.67E-01,0.104
2.68E-01,0.104
2.68E-01,0.128
2.68E-01,0.124
2.68E-01,0.124
2.68E-01,0.124
2.69E-01,0.12
2.69E-01,0.12
2.69E-01,0.112
2.69E-01,0.112
2.69E-01,0.124
2.70E-01,0.128
2.70E-01,0.132
2.70E-01,0.148
2.70E-01,0.144
2.70E-01,0.144
2.71E-01,0.164
2.71E-01,0.148
2.71E-01,0.152
2.71E-01,0.16
2.71E-01,0.152
2.72E-01,0.16
2.72E-01,0.14
2.72E-01,0.12
2.72E-01,0.12
2.72E-01,0.1
2.73E-01,0.104
2.73E-01,0.088
2.73E-01,0.084
2.73E-01,0.072
2.73E-01,0.048
2.74E-01,0.032
2.74E-01,0.02
2.74E-01,0
2.74E-01,0
2.74E-01,-0.024
2.75E-01,-0.032
2.75E-01,-0.032
2.75E-01,-0.068
2.75E-01,-0.076
2.75E-01,-0.068
2.76E-01,-0.076
2.76E-01,-0.084
2.76E-01,-0.068
2.76E-01,-0.076
2.76E-01,-0.088
2.77E-01,-0.06
2.77E-01,-0.072
2.77E-01,-0.072
2.77E-01,-0.056
2.77E-01,-0.056
2.78E-01,-0.044
2.78E-01,-0.012
2.78E-01,-0.004
2.78E-01,0.004
2.78E-01,0.012
2.79E-01,0.044
2.79E-01,0.036
2.79E-01,0.048
2.79E-01,0.068
2.79E-01,0.076
2.80E-01,0.076
2.80E-01,0.084
2.80E-01,0.076
2.80E-01,0.076
2.80E-01,0.1
2.81E-01,0.076
2.81E-01,0.076
2.81E-01,0.072
2.81E-01,0.072
2.81E-01,0.076
2.82E-01,0.08
2.82E-01,0.064
2.82E-01,0.08
2.82E-01,0.08
2.82E-01,0.084
2.83E-01,0.084
2.83E-01,0.112
2.83E-01,0.108
2.83E-01,0.104
2.83E-01,0.124
2.84E-01,0.132
2.84E-01,0.132
2.84E-01,0.124
2.84E-01,0.124
2.84E-01,0.12
2.85E-01,0.108
2.85E-01,0.124
2.85E-01,0.108
2.85E-01,0.116
2.85E-01,0.104
2.86E-01,0.088
2.86E-01,0.072
2.86E-01,0.064
2.86E-01,0.064
2.86E-01,0.072
2.87E-01,0.072
2.87E-01,0.076
2.87E-01,0.068
2.87E-01,0.08
2.87E-01,0.072
2.88E-01,0.064
2.88E-01,0.092
2.88E-01,0.1
2.88E-01,0.084
2.88E-01,0.088
2.89E-01,0.096
2.89E-01,0.1
2.89E-01,0.076
2.89E-01,0.064
2.89E-01,0.064
2.90E-01,0.068
2.90E-01,0.076
2.90E-01,0.06
2.90E-01,0.052
2.90E-01,0.048
2.91E-01,0.056
2.91E-01,0.024
2.91E-01,0.008
2.91E-01,0
2.91E-01,0.008
2.92E-01,-0.02
2.92E-01,-0.04
2.92E-01,-0.044
2.92E-01,-0.064
2.92E-01,-0.06
2.93E-01,-0.076
2.93E-01,-0.092
2.93E-01,-0.104
2.93E-01,-0.08
2.93E-01,-0.104
2.94E-01,-0.112
2.94E-01,-0.108
2.94E-01,-0.108
2.94E-01,-0.112
2.94E-01,-0.092
2.95E-01,-0.088
2.95E-01,-0.1
2.95E-01,-0.08
2.95E-01,-0.076
2.95E-01,-0.084
2.96E-01,-0.056
2.96E-01,-0.024
2.96E-01,-0.02
2.96E-01,-0.016
2.96E-01,-0.02
2.97E-01,-0.024
2.97E-01,-0.028
2.97E-01,-0.032
2.97E-01,-0.036
2.97E-01,-0.052
2.98E-01,-0.036
2.98E-01,-0.048
2.98E-01,-0.06
2.98E-01,-0.052
2.98E-01,-0.052
2.99E-01,-0.052
2.99E-01,-0.048
2.99E-01,-0.032
2.99E-01,-0.012
2.99E-01,0.004
3.00E-01,0.008
3.00E-01,0.012
3.00E-01,0.016
3.00E-01,0.044
3.00E-01,0.064
3.01E-01,0.044
3.01E-01,0.064
3.01E-01,0.076
3.01E-01,0.064
3.01E-01,0.072
3.02E-01,0.08
3.02E-01,0.088
3.02E-01,0.068
3.02E-01,0.072
3.02E-01,0.064
3.03E-01,0.056
3.03E-01,0.056
3.03E-01,0.076
3.03E-01,0.068
3.03E-01,0.088
3.04E-01,0.064
3.04E-01,0.048
3.04E-01,0.056
3.04E-01,0.06
3.04E-01,0.056
3.05E-01,0.04
3.05E-01,0.044
3.05E-01,0.06
3.05E-01,0.04
3.05E-01,0.036
3.06E-01,0
3.06E-01,0
3.06E-01,0
3.06E-01,-0.008
3.06E-01,-0.016
3.07E-01,0.012
3.07E-01,-0.004
3.07E-01,0.012
3.07E-01,0.008
3.07E-01,-0.004
3.08E-01,-0.004
3.08E-01,-0.004
3.08E-01,-0.024
3.08E-01,-0.04
3.08E-01,-0.04
3.09E-01,-0.044
3.09E-01,-0.04
3.09E-01,-0.04
3.09E-01,-0.052
3.09E-01,-0.056
3.10E-01,-0.06
3.10E-01,-0.064
3.10E-01,-0.032
3.10E-01,-0.032
3.10E-01,-0.048
3.11E-01,-0.032
3.11E-01,-0.056
3.11E-01,-0.04
3.11E-01,-0.052
3.11E-01,-0.048
3.12E-01,-0.044
3.12E-01,-0.056
3.12E-01,-0.056
3.12E-01,-0.048
3.12E-01,-0.056
3.13E-01,-0.032
3.13E-01,-0.044
3.13E-01,-0.036
3.13E-01,-0.024
3.13E-01,-0.028
3.14E-01,-0.024
3.14E-01,-0.004
3.14E-01,-0.004
3.14E-01,0
3.14E-01,0.008
3.15E-01,-0.004
3.15E-01,0.008
3.15E-01,0.02
3.15E-01,0.004
3.15E-01,0
3.16E-01,0.02
3.16E-01,0.032
3.16E-01,0.032
3.16E-01,0.036
3.16E-01,0.044
3.17E-01,0.06
3.17E-01,0.048
3.17E-01,0.072
3.17E-01,0.044
3.17E-01,0.08
3.18E-01,0.088
3.18E-01,0.084
3.18E-01,0.092
3.18E-01,0.112
3.18E-01,0.12
3.19E-01,0.132
3.19E-01,0.136
3.19E-01,0.12
3.19E-01,0.112
3.19E-01,0.116
3.20E-01,0.104
3.20E-01,0.104
3.20E-01,0.1
3.20E-01,0.104
3.20E-01,0.092
3.21E-01,0.084
3.21E-01,0.076
3.21E-01,0.064
3.21E-01,0.068
3.21E-01,0.076
3.22E-01,0.076
3.22E-01,0.06
3.22E-01,0.064
3.22E-01,0.056
3.22E-01,0.044
3.23E-01,0.052
3.23E-01,0.044
3.23E-01,0.036
3.23E-01,0.056
3.23E-01,0.028
3.24E-01,0.024
3.24E-01,0.028
3.24E-01,0.02
3.24E-01,0.02
3.24E-01,0.008
3.25E-01,0.028
3.25E-01,0.032
3.25E-01,0.024
3.25E-01,0.016
3.25E-01,0.036
3.26E-01,0.028
3.26E-01,0.028
3.26E-01,0.024
3.26E-01,0.012
3.26E-01,0.012
3.27E-01,0.012
3.27E-01,0.004
3.27E-01,-0.004
3.27E-01,-0.016
3.27E-01,-0.028
3.28E-01,-0.012
3.28E-01,-0.036
3.28E-01,-0.028
3.28E-01,-0.032
3.28E-01,-0.032
3.29E-01,-0.032
3.29E-01,-0.032
3.29E-01,-0.032
3.29E-01,-0.028
3.29E-01,-0.02
3.30E-01,-0.036
3.30E-01,-0.032
3.30E-01,-0.024
3.30E-01,-0.028
3.30E-01,-0.012
3.31E-01,-0.004
3.31E-01,-0.008
3.31E-01,0.004
3.31E-01,0.028
3.31E-01,0.036
3.32E-01,0.052
3.32E-01,0.06
3.32E-01,0.068
3.32E-01,0.088
3.32E-01,0.092
3.33E-01,0.092
3.33E-01,0.088
3.33E-01,0.1
3.33E-01,0.092
3.33E-01,0.1
3.34E-01,0.104
3.34E-01,0.104
3.34E-01,0.108
3.34E-01,0.12
3.34E-01,0.108
3.35E-01,0.112
3.35E-01,0.12
3.35E-01,0.132
3.35E-01,0.128
3.35E-01,0.136
3.36E-01,0.16
3.36E-01,0.14
3.36E-01,0.148
3.36E-01,0.164
3.36E-01,0.156
3.37E-01,0.172
3.37E-01,0.18
3.37E-01,0.172
3.37E-01,0.16
3.37E-01,0.152
3.38E-01,0.152
3.38E-01,0.128
3.38E-01,0.156
3.38E-01,0.12
3.38E-01,0.112
3.39E-01,0.108
3.39E-01,0.112
3.39E-01,0.088
3.39E-01,0.076
3.39E-01,0.044
3.40E-01,0.04
3.40E-01,0.028
3.40E-01,0.016
3.40E-01,0.024
3.40E-01,0.028
3.41E-01,0.028
3.41E-01,0.02
3.41E-01,0.008
3.41E-01,0.024
3.41E-01,-0.004
3.42E-01,0.012
3.42E-01,-0.024
3.42E-01,-0.032
3.42E-01,-0.048
3.42E-01,-0.064
3.43E-01,-0.056
3.43E-01,-0.064
3.43E-01,-0.04
3.43E-01,-0.056
3.43E-01,-0.064
3.44E-01,-0.036
3.44E-01,-0.028
3.44E-01,-0.04
3.44E-01,-0.044
3.44E-01,-0.044
3.45E-01,-0.036
3.45E-01,-0.056
3.45E-01,-0.04
3.45E-01,-0.048
3.45E-01,-0.04
3.46E-01,-0.044
3.46E-01,-0.044
3.46E-01,-0.052
3.46E-01,-0.048
3.46E-01,-0.052
3.47E-01,-0.012
3.47E-01,-0.028
3.47E-01,-0.032
3.47E-01,-0.008
3.47E-01,-0.012
3.48E-01,-0.008
3.48E-01,-0.028
3.48E-01,-0.016
3.48E-01,-0.008
3.48E-01,-0.032
3.49E-01,-0.04
3.49E-01,-0.032
3.49E-01,-0.032
3.49E-01,-0.036
3.49E-01,-0.012
3.50E-01,-0.036
3.50E-01,-0.024
3.50E-01,-0.024
3.50E-01,-0.02
3.50E-01,-0.012
3.51E-01,0
3.51E-01,-0.012
3.51E-01,0.012
3.51E-01,0.008
3.51E-01,0.004
3.52E-01,-0.008
3.52E-01,0.008
3.52E-01,0.012
3.52E-01,0.028
3.52E-01,0.008
3.53E-01,0.024
3.53E-01,0.036
3.53E-01,0.036
3.53E-01,0.04
3.53E-01,0.04
3.54E-01,0.052
3.54E-01,0.048
3.54E-01,0.036
3.54E-01,0.044
3.54E-01,0.044
3.55E-01,0.04
3.55E-01,0.028
3.55E-01,0.012
3.55E-01,0.008
3.55E-01,-0.02
3.56E-01,-0.004
3.56E-01,-0.024
3.56E-01,-0.028
3.56E-01,-0.052
3.56E-01,-0.072
3.57E-01,-0.072
3.57E-01,-0.084
3.57E-01,-0.112
3.57E-01,-0.116
3.57E-01,-0.136
3.58E-01,-0.148
3.58E-01,-0.132
3.58E-01,-0.14
3.58E-01,-0.144
3.58E-01,-0.14
3.59E-01,-0.156
3.59E-01,-0.16
3.59E-01,-0.152
3.59E-01,-0.14
3.59E-01,-0.14
3.60E-01,-0.14
3.60E-01,-0.136
3.60E-01,-0.136
3.60E-01,-0.108
3.60E-01,-0.108
3.61E-01,-0.116
3.61E-01,-0.108
3.61E-01,-0.104
3.61E-01,-0.084
3.61E-01,-0.072
3.62E-01,-0.064
3.62E-01,-0.048
3.62E-01,-0.024
3.62E-01,-0.024
3.62E-01,-0.024
3.63E-01,-0.024
3.63E-01,0
3.63E-01,0.012
3.63E-01,0.02
3.63E-01,0.016
3.64E-01,0.008
3.64E-01,0.044
3.64E-01,0.036
3.64E-01,0.032
3.64E-01,0.036
3.65E-01,0.032
3.65E-01,0.056
3.65E-01,0.048
3.65E-01,0.068
3.65E-01,0.076
3.66E-01,0.088
3.66E-01,0.104
3.66E-01,0.092
3.66E-01,0.092
3.66E-01,0.1
3.67E-01,0.112
3.67E-01,0.124
3.67E-01,0.124
3.67E-01,0.124
3.67E-01,0.12
3.68E-01,0.128
3.68E-01,0.116
3.68E-01,0.1
3.68E-01,0.104
3.68E-01,0.104
3.69E-01,0.084
3.69E-01,0.084
3.69E-01,0.072
3.69E-01,0.072
3.69E-01,0.06
3.70E-01,0.072
3.70E-01,0.068
3.70E-01,0.052
3.70E-01,0.068
3.70E-01,0.076
3.71E-01,0.048
3.71E-01,0.052
3.71E-01,0.06
3.71E-01,0.056
3.71E-01,0.036
3.72E-01,0.06
3.72E-01,0.028
3.72E-01,0.044
3.72E-01,0.04
3.72E-01,0.044
3.73E-01,0.052
3.73E-01,0.044
3.73E-01,0.024
3.73E-01,0.044
3.73E-01,0.04
3.74E-01,0.016
3.74E-01,0
3.74E-01,0.004
3.74E-01,0
3.74E-01,-0.012
3.75E-01,-0.012
3.75E-01,-0.02
3.75E-01,-0.028
3.75E-01,-0.048
3.75E-01,-0.068
3.76E-01,-0.068
3.76E-01,-0.06
3.76E-01,-0.076
3.76E-01,-0.076
3.76E-01,-0.084
3.77E-01,-0.092
3.77E-01,-0.096
3.77E-01,-0.08
3.77E-01,-0.084
3.77E-01,-0.092
3.78E-01,-0.076
3.78E-01,-0.084
3.78E-01,-0.088
3.78E-01,-0.064
3.78E-01,-0.076
3.79E-01,-0.1
3.79E-01,-0.092
3.79E-01,-0.108
3.79E-01,-0.112
3.79E-01,-0.092
3.80E-01,-0.1
3.80E-01,-0.092
3.80E-01,-0.084
3.80E-01,-0.092
3.80E-01,-0.076
3.81E-01,-0.052
3.81E-01,-0.044
3.81E-01,-0.044
3.81E-01,-0.024
3.81E-01,-0.016
3.82E-01,0
3.82E-01,0.008
3.82E-01,0.02
3.82E-01,0.016
3.82E-01,0.036
3.83E-01,0.044
3.83E-01,0.028
3.83E-01,0.052
3.83E-01,0.072
3.83E-01,0.08
3.84E-01,0.08
3.84E-01,0.096
3.84E-01,0.108
3.84E-01,0.12
3.84E-01,0.12
3.85E-01,0.1
3.85E-01,0.108
3.85E-01,0.112
3.85E-01,0.112
3.85E-01,0.104
3.86E-01,0.08
3.86E-01,0.072
3.86E-01,0.072
3.86E-01,0.052
3.86E-01,0.052
3.87E-01,0.036
3.87E-01,0.056
3.87E-01,0.048
3.87E-01,0.036
3.87E-01,0.044
3.88E-01,0.036
3.88E-01,0.04
3.88E-01,-0.004
3.88E-01,0.02
3.88E-01,0.004
3.89E-01,-0.008
3.89E-01,0
3.89E-01,-0.008
3.89E-01,-0.02
3.89E-01,-0.02
3.90E-01,-0.028
3.90E-01,-0.02
3.90E-01,-0.04
3.90E-01,-0.04
3.90E-01,-0.044
3.91E-01,-0.048
3.91E-01,-0.044
3.91E-01,-0.06
3.91E-01,-0.044
3.91E-01,-0.048
3.92E-01,-0.048
3.92E-01,-0.06
3.92E-01,-0.076
3.92E-01,-0.068
3.92E-01,-0.084
3.93E-01,-0.076
3.93E-01,-0.088
3.93E-01,-0.056
3.93E-01,-0.064
3.93E-01,-0.092
3.94E-01,-0.088
3.94E-01,-0.092
3.94E-01,-0.088
3.94E-01,-0.092
3.94E-01,-0.096
3.95E-01,-0.072
3.95E-01,-0.06
3.95E-01,-0.064
3.95E-01,-0.068
3.95E-01,-0.068
3.96E-01,-0.04
3.96E-01,-0.04
3.96E-01,-0.044
3.96E-01,-0.024
3.96E-01,-0.028
3.97E-01,-0.012
3.97E-01,-0.004
3.97E-01,-0.008
3.97E-01,0.004
3.97E-01,0.028
3.98E-01,0.032
3.98E-01,0.04
3.98E-01,0.048
3.98E-01,0.036
3.98E-01,0.044
3.99E-01,0.044
3.99E-01,0.048
3.99E-01,0.024
3.99E-01,0.056
3.99E-01,0.044
4.00E-01,0.04
4.00E-01,0.04
4.00E-01,0.052
4.00E-01,0.048
4.00E-01,0.052
4.01E-01,0.064
4.01E-01,0.06
4.01E-01,0.06
4.01E-01,0.08
4.01E-01,0.084
4.02E-01,0.076
4.02E-01,0.084
4.02E-01,0.072
4.02E-01,0.092
4.02E-01,0.104
4.03E-01,0.096
4.03E-01,0.088
4.03E-01,0.1
4.03E-01,0.084
4.03E-01,0.092
4.04E-01,0.088
4.04E-01,0.092
4.04E-01,0.088
4.04E-01,0.08
4.04E-01,0.076
4.05E-01,0.088
4.05E-01,0.076
4.05E-01,0.076
4.05E-01,0.068
4.05E-01,0.064
4.06E-01,0.048
4.06E-01,0.056
4.06E-01,0.052
4.06E-01,0.06
4.06E-01,0.028
4.07E-01,0.02
4.07E-01,0.016
4.07E-01,-0.012
4.07E-01,-0.024
4.07E-01,-0.02
4.08E-01,-0.048
4.08E-01,-0.048
4.08E-01,-0.056
4.08E-01,-0.088
4.08E-01,-0.092
4.09E-01,-0.088
4.09E-01,-0.1
4.09E-01,-0.12
4.09E-01,-0.108
4.09E-01,-0.108
4.10E-01,-0.116
4.10E-01,-0.124
4.10E-01,-0.124
4.10E-01,-0.12
4.10E-01,-0.116
4.11E-01,-0.128
4.11E-01,-0.124
4.11E-01,-0.104
4.11E-01,-0.08
4.11E-01,-0.092
4.12E-01,-0.076
4.12E-01,-0.072
4.12E-01,-0.06
4.12E-01,-0.052
4.12E-01,-0.052
4.13E-01,-0.056
4.13E-01,-0.028
4.13E-01,-0.036
4.13E-01,-0.016
4.13E-01,-0.032
4.14E-01,-0.02
4.14E-01,-0.016
4.14E-01,0.016
4.14E-01,0.028
4.14E-01,0.032
4.15E-01,0.044
4.15E-01,0.072
4.15E-01,0.048
4.15E-01,0.052
4.15E-01,0.052
4.16E-01,0.024
4.16E-01,0.02
4.16E-01,0.012
4.16E-01,-0.012
4.16E-01,-0.024
4.17E-01,-0.032
4.17E-01,-0.032
4.17E-01,-0.044
4.17E-01,-0.04
4.17E-01,-0.048
4.18E-01,-0.048
4.18E-01,-0.04
4.18E-01,-0.048
4.18E-01,-0.044
4.18E-01,-0.028
4.19E-01,-0.024
4.19E-01,0.012
4.19E-01,0
4.19E-01,0.012
4.19E-01,0.036
4.20E-01,0.036
4.20E-01,0.06
4.20E-01,0.06
4.20E-01,0.068
4.20E-01,0.08
4.21E-01,0.112
4.21E-01,0.088
4.21E-01,0.092
4.21E-01,0.084
4.21E-01,0.084
4.22E-01,0.072
4.22E-01,0.06
4.22E-01,0.044
4.22E-01,0.032
4.22E-01,0.032
4.23E-01,0.016
4.23E-01,0.024
4.23E-01,0.016
4.23E-01,-0.004
4.23E-01,0.004
4.24E-01,-0.004
4.24E-01,-0.02
4.24E-01,-0.056
4.24E-01,-0.052
4.24E-01,-0.072
4.25E-01,-0.08
4.25E-01,-0.072
4.25E-01,-0.088
4.25E-01,-0.088
4.25E-01,-0.108
4.26E-01,-0.112
4.26E-01,-0.108
4.26E-01,-0.108
4.26E-01,-0.12
4.26E-01,-0.12
4.27E-01,-0.096
4.27E-01,-0.104
4.27E-01,-0.116
4.27E-01,-0.108
4.27E-01,-0.088
4.28E-01,-0.08
4.28E-01,-0.08
4.28E-01,-0.088
4.28E-01,-0.06
4.28E-01,-0.06
4.29E-01,-0.064
4.29E-01,-0.056
4.29E-01,-0.06
4.29E-01,-0.04
4.29E-01,-0.032
4.30E-01,-0.016
4.30E-01,-0.016
4.30E-01,-0.008
4.30E-01,0.004
4.30E-01,0.012
4.31E-01,0
4.31E-01,0.008
4.31E-01,0.028
4.31E-01,0.032
4.31E-01,0.04
4.32E-01,0.036
4.32E-01,0.044
4.32E-01,0.076
4.32E-01,0.072
4.32E-01,0.076
4.33E-01,0.104
4.33E-01,0.1
4.33E-01,0.108
4.33E-01,0.128
4.33E-01,0.132
4.34E-01,0.148
4.34E-01,0.152
4.34E-01,0.148
4.34E-01,0.172
4.34E-01,0.148
4.35E-01,0.16
4.35E-01,0.156
4.35E-01,0.16
4.35E-01,0.148
4.35E-01,0.144
4.36E-01,0.128
4.36E-01,0.12
4.36E-01,0.12
4.36E-01,0.096
4.36E-01,0.076
4.37E-01,0.072
4.37E-01,0.076
4.37E-01,0.072
4.37E-01,0.052
4.37E-01,0.044
4.38E-01,0.028
4.38E-01,0.036
4.38E-01,0.008
4.38E-01,0
4.38E-01,-0.008
4.39E-01,-0.024
4.39E-01,-0.032
4.39E-01,-0.052
4.39E-01,-0.06
4.39E-01,-0.052
4.40E-01,-0.056
4.40E-01,-0.052
4.40E-01,-0.044
4.40E-01,-0.048
4.40E-01,-0.036
4.41E-01,-0.028
4.41E-01,-0.024
4.41E-01,-0.056
4.41E-01,-0.052
4.41E-01,-0.048
4.42E-01,-0.056
4.42E-01,-0.072
4.42E-01,-0.06
4.42E-01,-0.06
4.42E-01,-0.08
4.43E-01,-0.08
4.43E-01,-0.072
4.43E-01,-0.08
4.43E-01,-0.06
4.43E-01,-0.06
4.44E-01,-0.084
4.44E-01,-0.068
4.44E-01,-0.076
4.44E-01,-0.084
4.44E-01,-0.088
4.45E-01,-0.076
4.45E-01,-0.08
4.45E-01,-0.08
4.45E-01,-0.088
4.45E-01,-0.108
4.46E-01,-0.088
4.46E-01,-0.072
4.46E-01,-0.08
4.46E-01,-0.084
4.46E-01,-0.06
4.47E-01,-0.048
4.47E-01,-0.048
4.47E-01,-0.048
4.47E-01,-0.06
4.47E-01,-0.044
4.48E-01,-0.04
4.48E-01,-0.036
4.48E-01,-0.028
4.48E-01,-0.032
4.48E-01,-0.04
4.49E-01,-0.024
4.49E-01,-0.028
4.49E-01,-0.02
4.49E-01,-0.012
4.49E-01,0
4.50E-01,-0.004
4.50E-01,0
4.50E-01,-0.004
4.50E-01,0.004
4.50E-01,0.012
4.51E-01,0.008
4.51E-01,-0.004
4.51E-01,-0.004
4.51E-01,0
4.51E-01,0.016
4.52E-01,0.02
4.52E-01,0.024
4.52E-01,0.012
4.52E-01,0.012
4.52E-01,0.012
4.53E-01,0.016
4.53E-01,0.008
4.53E-01,0.008
4.53E-01,0.008
4.53E-01,0.012
4.54E-01,0.004
4.54E-01,0.012
4.54E-01,0.016
4.54E-01,-0.008
4.54E-01,0.02
4.55E-01,-0.004
4.55E-01,-0.012
4.55E-01,-0.004
4.55E-01,-0.012
4.55E-01,-0.024
4.56E-01,-0.036
4.56E-01,-0.04
4.56E-01,-0.048
4.56E-01,-0.056
4.56E-01,-0.048
4.57E-01,-0.052
4.57E-01,-0.048
4.57E-01,-0.052
4.57E-01,-0.048
4.57E-01,-0.052
4.58E-01,-0.056
4.58E-01,-0.056
4.58E-01,-0.056
4.58E-01,-0.04
4.58E-01,-0.032
4.59E-01,-0.024
4.59E-01,-0.008
4.59E-01,-0.016
4.59E-01,0
4.59E-01,0.012
4.60E-01,0.012
4.60E-01,0.024
4.60E-01,0.032
4.60E-01,0
4.60E-01,0.02
4.61E-01,0.012
4.61E-01,-0.02
4.61E-01,-0.048
4.61E-01,-0.052
4.61E-01,-0.048
4.62E-01,-0.088
4.62E-01,-0.104
4.62E-01,-0.116
4.62E-01,-0.108
4.62E-01,-0.116
4.63E-01,-0.128
4.63E-01,-0.132
4.63E-01,-0.124
4.63E-01,-0.112
4.63E-01,-0.116
4.64E-01,-0.12
4.64E-01,-0.1
4.64E-01,-0.096
4.64E-01,-0.112
4.64E-01,-0.092
4.65E-01,-0.108
4.65E-01,-0.092
4.65E-01,-0.068
4.65E-01,-0.084
4.65E-01,-0.072
4.66E-01,-0.064
4.66E-01,-0.048
4.66E-01,-0.032
4.66E-01,-0.024
4.66E-01,-0.02
4.67E-01,-0.024
4.67E-01,-0.012
4.67E-01,-0.016
4.67E-01,-0.012
4.67E-01,0
4.68E-01,-0.008
4.68E-01,-0.012
4.68E-01,0
4.68E-01,0.012
4.68E-01,0
4.69E-01,0.024
4.69E-01,0.028
4.69E-01,0.016
4.69E-01,0.02
4.69E-01,0.028
4.70E-01,0.028
4.70E-01,0.012
4.70E-01,0.028
4.70E-01,0.016
4.70E-01,0.012
4.71E-01,0.012
4.71E-01,0.008
4.71E-01,0
4.71E-01,-0.008
4.71E-01,-0.016
4.72E-01,-0.016
4.72E-01,-0.02
4.72E-01,-0.024
4.72E-01,-0.032
4.72E-01,-0.036
4.73E-01,-0.06
4.73E-01,-0.068
4.73E-01,-0.048
4.73E-01,-0.052
4.73E-01,-0.08
4.74E-01,-0.068
4.74E-01,-0.072
4.74E-01,-0.072
4.74E-01,-0.072
4.74E-01,-0.076
4.75E-01,-0.084
4.75E-01,-0.08
4.75E-01,-0.076
4.75E-01,-0.1
4.75E-01,-0.096
4.76E-01,-0.104
4.76E-01,-0.128
4.76E-01,-0.128
4.76E-01,-0.144
4.76E-01,-0.16
4.77E-01,-0.148
4.77E-01,-0.172
4.77E-01,-0.176
4.77E-01,-0.204
4.77E-01,-0.196
4.78E-01,-0.208
4.78E-01,-0.196
4.78E-01,-0.196
4.78E-01,-0.204
4.78E-01,-0.208
4.79E-01,-0.192
4.79E-01,-0.172
4.79E-01,-0.164
4.79E-01,-0.156
4.79E-01,-0.124
4.80E-01,-0.12
4.80E-01,-0.108
4.80E-01,-0.112
4.80E-01,-0.092
4.80E-01,-0.08
4.81E-01,-0.088
4.81E-01,-0.088
4.81E-01,-0.072
4.81E-01,-0.088
4.81E-01,-0.088
4.82E-01,-0.088
4.82E-01,-0.088
4.82E-01,-0.084
4.82E-01,-0.068
4.82E-01,-0.064
4.83E-01,-0.052
4.83E-01,-0.032
4.83E-01,-0.04
4.83E-01,-0.012
4.83E-01,-0.016
4.84E-01,0.008
4.84E-01,0
4.84E-01,0.012
4.84E-01,0.032
4.84E-01,0.028
4.85E-01,0.008
4.85E-01,0.024
4.85E-01,0.028
4.85E-01,0.028
4.85E-01,0.024
4.86E-01,0.032
4.86E-01,0.02
4.86E-01,0.024
4.86E-01,0.024
4.86E-01,0.008
4.87E-01,0.004
4.87E-01,0.024
4.87E-01,0
4.87E-01,0.004
4.87E-01,0.012
4.88E-01,0.004
4.88E-01,0
4.88E-01,-0.004
4.88E-01,-0.016
4.88E-01,-0.012
4.89E-01,-0.012
4.89E-01,0
4.89E-01,-0.016
4.89E-01,-0.008
4.89E-01,-0.008
4.90E-01,-0.012
4.90E-01,-0.008
4.90E-01,-0.012
4.90E-01,-0.012
4.90E-01,-0.008
4.91E-01,-0.024
4.91E-01,-0.02
4.91E-01,-0.036
4.91E-01,-0.036
4.91E-01,-0.02
4.92E-01,-0.04
4.92E-01,-0.04
4.92E-01,-0.04
4.92E-01,-0.032
4.92E-01,-0.028
4.93E-01,-0.044
4.93E-01,-0.036
4.93E-01,-0.036
4.93E-01,-0.052
4.93E-01,-0.024
4.94E-01,-0.004
4.94E-01,-0.02
4.94E-01,-0.024
4.94E-01,-0.02
4.94E-01,-0.04
4.95E-01,-0.036
4.95E-01,-0.048
4.95E-01,-0.048
4.95E-01,-0.056
4.95E-01,-0.072
4.96E-01,-0.076
4.96E-01,-0.084
4.96E-01,-0.072
4.96E-01,-0.088
4.96E-01,-0.092
4.97E-01,-0.072
4.97E-01,-0.076
4.97E-01,-0.088
4.97E-01,-0.068
4.97E-01,-0.084
4.98E-01,-0.068
4.98E-01,-0.064
4.98E-01,-0.064
4.98E-01,-0.048
4.98E-01,-0.04
4.99E-01,-0.04
4.99E-01,-0.02
4.99E-01,-0.02
4.99E-01,-0.004
4.99E-01,0
5.00E-01,0.016
5.00E-01,0.024
5.00E-01,0.028
5.00E-01,0.032
5.00E-01,0.044
5.01E-01,0.064
5.01E-01,0.076
5.01E-01,0.056
5.01E-01,0.068
5.01E-01,0.052
5.02E-01,0.08
5.02E-01,0.044
5.02E-01,0.06
5.02E-01,0.084
5.02E-01,0.072
5.03E-01,0.052
5.03E-01,0.052
5.03E-01,0.036
5.03E-01,0.028
5.03E-01,0.028
5.04E-01,0.024
5.04E-01,0.004
5.04E-01,0.028
5.04E-01,0.028
5.04E-01,0.044
5.05E-01,0.032
5.05E-01,0.04
5.05E-01,0.048
5.05E-01,0.06
5.05E-01,0.048
5.06E-01,0.052
5.06E-01,0.044
5.06E-01,0.052
5.06E-01,0.04
5.06E-01,0.04
5.07E-01,0.04
5.07E-01,0.028
5.07E-01,0.052
5.07E-01,0.032
5.07E-01,0.032
5.08E-01,0.04
5.08E-01,0.032
5.08E-01,0.032
5.08E-01,0.02
5.08E-01,0.028
5.09E-01,0.016
5.09E-01,0.032
5.09E-01,0.04
5.09E-01,0.04
5.09E-01,0.04
5.10E-01,0.032
5.10E-01,0.048
