-1,0.084
-1,0.076
-1,0.056
-0.999,0.04
-0.999,0.048
-0.999,0.056
-0.999,0.036
-0.999,0.048
-0.998,0.036
-0.998,0.036
-0.998,0.032
-0.998,0.016
-0.998,0.004
-0.997,0.008
-0.997,0.024
-0.997,-0.008
-0.997,0
-0.997,-0.012
-0.996,0.012
-0.996,0.004
-0.996,0.004
-0.996,0.012
-0.996,0.004
-0.995,0.024
-0.995,0.044
-0.995,0.044
-0.995,0.048
-0.995,0.036
-0.994,0.04
-0.994,0.068
-0.994,0.064
-0.994,0.044
-0.994,0.048
-0.993,0.044
-0.993,0.044
-0.993,0.032
-0.993,0.016
-0.993,0.024
-0.992,0.024
-0.992,0.004
-0.992,0.004
-0.992,-0.004
-0.992,0.004
-0.991,0.004
-0.991,-0.008
-0.991,-0.004
-0.991,0.016
-0.991,0.008
-0.99,0
-0.99,0.004
-0.99,-0.02
-0.99,-0.004
-0.99,-0.02
-0.989,-0.024
-0.989,-0.024
-0.989,0.004
-0.989,-0.016
-0.989,0
-0.988,-0.016
-0.988,-0.012
-0.988,-0.008
-0.988,-0.016
-0.988,0
-0.987,0.024
-0.987,0.032
-0.987,0.04
-0.987,0.044
-0.987,0.08
-0.986,0.072
-0.986,0.108
-0.986,0.128
-0.986,0.144
-0.986,0.14
-0.985,0.156
-0.985,0.156
-0.985,0.152
-0.985,0.152
-0.985,0.144
-0.984,0.136
-0.984,0.14
-0.984,0.128
-0.984,0.108
-0.984,0.1
-0.983,0.072
-0.983,0.032
-0.983,0.032
-0.983,0.012
-0.983,0
-0.982,-0.012
-0.982,-0.036
-0.982,-0.064
-0.982,-0.06
-0.982,-0.076
-0.981,-0.076
-0.981,-0.076
-0.981,-0.068
-0.981,-0.056
-0.981,-0.064
-0.98,-0.056
-0.98,-0.052
-0.98,-0.028
-0.98,-0.032
-0.98,-0.028
-0.979,-0.024
-0.979,-0.024
-0.979,0.004
-0.979,0.02
-0.979,0.004
-0.978,0.012
-0.978,-0.004
-0.978,-0.012
-0.978,-0.02
-0.978,-0.036
-0.977,-0.012
-0.977,-0.04
-0.977,-0.048
-0.977,-0.04
-0.977,-0.02
-0.976,-0.036
-0.976,-0.008
-0.976,-0.012
-0.976,0.004
-0.976,0
-0.975,0.02
-0.975,0.036
-0.975,0.028
-0.975,0.032
-0.975,0.044
-0.974,0.04
-0.974,0.028
-0.974,0.016
-0.974,0.004
-0.974,0.004
-0.973,0.02
-0.973,-0.004
-0.973,0.004
-0.973,0.012
-0.973,0.008
-0.972,0.012
-0.972,0.004
-0.972,-0.012
-0.972,0
-0.972,-0.016
-0.971,-0.032
-0.971,-0.028
-0.971,-0.016
-0.971,-0.04
-0.971,-0.044
-0.97,-0.068
-0.97,-0.088
-0.97,-0.068
-0.97,-0.104
-0.97,-0.104
-0.969,-0.084
-0.969,-0.084
-0.969,-0.088
-0.969,-0.08
-0.969,-0.056
-0.968,-0.044
-0.968,-0.036
-0.968,-0.02
-0.968,-0.024
-0.968,-0.004
-0.967,0.016
-0.967,0.032
-0.967,0.052
-0.967,0.052
-0.967,0.056
-0.966,0.072
-0.966,0.084
-0.966,0.084
-0.966,0.104
-0.966,0.116
-0.965,0.112
-0.965,0.124
-0.965,0.128
-0.965,0.128
-0.965,0.12
-0.964,0.104
-0.964,0.092
-0.964,0.092
-0.964,0.08
-0.964,0.092
-0.963,0.088
-0.963,0.064
-0.963,0.06
-0.963,0.04
-0.963,0.036
-0.962,0.036
-0.962,0.004
-0.962,-0.012
-0.962,-0.024
-0.962,-0.04
-0.961,-0.04
-0.961,-0.02
-0.961,-0.036
-0.961,-0.036
-0.961,-0.036
-0.96,-0.044
-0.96,-0.036
-0.96,-0.06
-0.96,-0.068
-0.96,-0.056
-0.959,-0.068
-0.959,-0.076
-0.959,-0.068
-0.959,-0.084
-0.959,-0.088
-0.958,-0.088
-0.958,-0.088
-0.958,-0.084
-0.958,-0.1
-0.958,-0.096
-0.957,-0.092
-0.957,-0.088
-0.957,-0.092
-0.957,-0.084
-0.957,-0.104
-0.956,-0.068
-0.956,-0.02
-0.956,-0.008
-0.956,-0.008
-0.956,0.032
-0.955,0.028
-0.955,0.056
-0.955,0.06
-0.955,0.056
-0.955,0.088
-0.954,0.1
-0.954,0.08
-0.954,0.084
-0.954,0.088
-0.954,0.116
-0.953,0.096
-0.953,0.104
-0.953,0.12
-0.953,0.128
-0.953,0.1
-0.952,0.1
-0.952,0.104
-0.952,0.108
-0.952,0.112
-0.952,0.076
-0.951,0.064
-0.951,0.056
-0.951,0.02
-0.951,0.008
-0.951,0
-0.95,-0.012
-0.95,-0.016
-0.95,-0.016
-0.95,-0.036
-0.95,-0.024
-0.949,-0.036
-0.949,-0.036
-0.949,-0.044
-0.949,-0.04
-0.949,-0.048
-0.948,-0.032
-0.948,-0.012
-0.948,-0.012
-0.948,-0.024
-0.948,0
-0.947,0
-0.947,0.004
-0.947,0.02
-0.947,0.032
-0.947,0.024
-0.946,0.076
-0.946,0.068
-0.946,0.064
-0.946,0.084
-0.946,0.096
-0.945,0.096
-0.945,0.112
-0.945,0.088
-0.945,0.1
-0.945,0.116
-0.944,0.1
-0.944,0.076
-0.944,0.1
-0.944,0.104
-0.944,0.088
-0.943,0.068
-0.943,0.064
-0.943,0.06
-0.943,0.056
-0.943,0.048
-0.942,0.032
-0.942,0.028
-0.942,0.044
-0.942,0.024
-0.942,0.012
-0.941,0.028
-0.941,0.032
-0.941,0.016
-0.941,0.024
-0.941,0.036
-0.94,0.028
-0.94,0.028
-0.94,0.02
-0.94,0.036
-0.94,0.028
-0.939,0.036
-0.939,0.048
-0.939,0.072
-0.939,0.06
-0.939,0.048
-0.938,0.036
-0.938,0.044
-0.938,0.036
-0.938,0.02
-0.938,0.012
-0.937,0
-0.937,0.008
-0.937,-0.004
-0.937,-0.016
-0.937,-0.028
-0.936,-0.004
-0.936,-0.044
-0.936,-0.028
-0.936,-0.02
-0.936,-0.008
-0.935,-0.036
-0.935,-0.008
-0.935,-0.012
-0.935,0
-0.935,0.008
-0.934,0.008
-0.934,-0.004
-0.934,0
-0.934,0.008
-0.934,0
-0.933,0.048
-0.933,0
-0.933,0.024
-0.933,0.008
-0.933,0.012
-0.932,0.02
-0.932,0.028
-0.932,0.016
-0.932,0.036
-0.932,0.032
-0.931,0.056
-0.931,0.072
-0.931,0.064
-0.931,0.06
-0.931,0.052
-0.93,0.048
-0.93,0.036
-0.93,0.032
-0.93,0.04
-0.93,0.036
-0.929,0.032
-0.929,0.056
-0.929,0.052
-0.929,0.048
-0.929,0.064
-0.928,0.076
-0.928,0.072
-0.928,0.08
-0.928,0.088
-0.928,0.084
-0.927,0.084
-0.927,0.108
-0.927,0.096
-0.927,0.108
-0.927,0.116
-0.926,0.136
-0.926,0.124
-0.926,0.116
-0.926,0.104
-0.926,0.104
-0.925,0.08
-0.925,0.064
-0.925,0.048
-0.925,0.024
-0.925,0.024
-0.924,0.012
-0.924,-0.02
-0.924,-0.012
-0.924,-0.028
-0.924,-0.016
-0.923,-0.016
-0.923,-0.032
-0.923,-0.052
-0.923,-0.016
-0.923,-0.02
-0.922,-0.02
-0.922,-0.024
-0.922,-0.028
-0.922,-0.012
-0.922,0.004
-0.921,-0.016
-0.921,-0.032
-0.921,-0.016
-0.921,-0.02
-0.921,-0.032
-0.92,-0.06
-0.92,-0.044
-0.92,-0.04
-0.92,-0.06
-0.92,-0.072
-0.919,-0.064
-0.919,-0.052
-0.919,-0.06
-0.919,-0.08
-0.919,-0.06
-0.918,-0.072
-0.918,-0.06
-0.918,-0.068
-0.918,-0.056
-0.918,-0.024
-0.917,-0.016
-0.917,0.012
-0.917,0.008
-0.917,0.02
-0.917,0.048
-0.916,0.052
-0.916,0.068
-0.916,0.084
-0.916,0.124
-0.916,0.084
-0.915,0.104
-0.915,0.096
-0.915,0.136
-0.915,0.12
-0.915,0.112
-0.914,0.104
-0.914,0.112
-0.914,0.104
-0.914,0.112
-0.914,0.092
-0.913,0.088
-0.913,0.06
-0.913,0.052
-0.913,0.076
-0.913,0.052
-0.912,0.068
-0.912,0.068
-0.912,0.064
-0.912,0.072
-0.912,0.088
-0.911,0.036
-0.911,0.052
-0.911,0.056
-0.911,0.048
-0.911,0.032
-0.91,0.048
-0.91,0.04
-0.91,0.04
-0.91,0.012
-0.91,0.008
-0.909,0.02
-0.909,0.004
-0.909,0
-0.909,-0.012
-0.909,-0.016
-0.908,-0.004
-0.908,-0.028
-0.908,-0.02
-0.908,-0.032
-0.908,-0.04
-0.907,-0.048
-0.907,-0.024
-0.907,-0.04
-0.907,-0.036
-0.907,-0.052
-0.906,-0.028
-0.906,-0.016
-0.906,0.004
-0.906,0.004
-0.906,0.032
-0.905,0.068
-0.905,0.06
-0.905,0.048
-0.905,0.068
-0.905,0.056
-0.904,0.056
-0.904,0.06
-0.904,0.044
-0.904,0.02
-0.904,0.032
-0.903,0.044
-0.903,0.032
-0.903,0.048
-0.903,0.056
-0.903,0.068
-0.902,0.06
-0.902,0.076
-0.902,0.056
-0.902,0.088
-0.902,0.096
-0.901,0.076
-0.901,0.124
-0.901,0.156
-0.901,0.16
-0.901,0.176
-0.9,0.192
-0.9,0.196
-0.9,0.188
-0.9,0.196
-0.9,0.2
-0.899,0.188
-0.899,0.192
-0.899,0.192
-0.899,0.2
-0.899,0.216
-0.898,0.2
-0.898,0.212
-0.898,0.208
-0.898,0.204
-0.898,0.212
-0.897,0.18
-0.897,0.192
-0.897,0.188
-0.897,0.18
-0.897,0.156
-0.896,0.164
-0.896,0.16
-0.896,0.168
-0.896,0.152
-0.896,0.164
-0.895,0.152
-0.895,0.168
-0.895,0.148
-0.895,0.144
-0.895,0.152
-0.894,0.156
-0.894,0.156
-0.894,0.124
-0.894,0.132
-0.894,0.132
-0.893,0.08
-0.893,0.068
-0.893,0.072
-0.893,0.056
-0.893,0.024
-0.892,0.016
-0.892,-0.012
-0.892,-0.016
-0.892,-0.036
-0.892,-0.04
-0.891,-0.04
-0.891,-0.052
-0.891,-0.056
-0.891,-0.064
-0.891,-0.072
-0.89,-0.036
-0.89,-0.028
-0.89,-0.02
-0.89,0
-0.89,0.02
-0.889,0.012
-0.889,0.028
-0.889,0.04
-0.889,0.056
-0.889,0.072
-0.888,0.084
-0.888,0.088
-0.888,0.104
-0.888,0.084
-0.888,0.092
-0.887,0.088
-0.887,0.092
-0.887,0.096
-0.887,0.092
-0.887,0.1
-0.886,0.096
-0.886,0.088
-0.886,0.092
-0.886,0.112
-0.886,0.136
-0.885,0.124
-0.885,0.136
-0.885,0.152
-0.885,0.164
-0.885,0.128
-0.884,0.148
-0.884,0.148
-0.884,0.128
-0.884,0.172
-0.884,0.16
-0.883,0.14
-0.883,0.16
-0.883,0.164
-0.883,0.176
-0.883,0.14
-0.882,0.16
-0.882,0.136
-0.882,0.16
-0.882,0.148
-0.882,0.16
-0.881,0.172
-0.881,0.188
-0.881,0.192
-0.881,0.192
-0.881,0.192
-0.88,0.2
-0.88,0.184
-0.88,0.188
-0.88,0.204
-0.88,0.188
-0.879,0.196
-0.879,0.224
-0.879,0.216
-0.879,0.248
-0.879,0.216
-0.878,0.212
-0.878,0.236
-0.878,0.224
-0.878,0.204
-0.878,0.224
-0.877,0.204
-0.877,0.204
-0.877,0.188
-0.877,0.156
-0.877,0.168
-0.876,0.16
-0.876,0.144
-0.876,0.132
-0.876,0.108
-0.876,0.14
-0.875,0.14
-0.875,0.124
-0.875,0.156
-0.875,0.16
-0.875,0.168
-0.874,0.188
-0.874,0.196
-0.874,0.188
-0.874,0.192
-0.874,0.2
-0.873,0.18
-0.873,0.184
-0.873,0.16
-0.873,0.12
-0.873,0.132
-0.872,0.104
-0.872,0.088
-0.872,0.1
-0.872,0.084
-0.872,0.072
-0.871,0.052
-0.871,0.036
-0.871,0.02
-0.871,0.008
-0.871,0.016
-0.87,-0.004
-0.87,0.008
-0.87,0.008
-0.87,0
-0.87,-0.036
-0.869,-0.044
-0.869,-0.004
-0.869,-0.016
-0.869,0
-0.869,0.02
-0.868,0.036
-0.868,0.04
-0.868,0.028
-0.868,0.008
-0.868,0.04
-0.867,0.04
-0.867,0.06
-0.867,0.072
-0.867,0.08
-0.867,0.124
-0.866,0.112
-0.866,0.104
-0.866,0.1
-0.866,0.132
-0.866,0.128
-0.865,0.124
-0.865,0.128
-0.865,0.148
-0.865,0.156
-0.865,0.16
-0.864,0.148
-0.864,0.172
-0.864,0.192
-0.864,0.2
-0.864,0.208
-0.863,0.196
-0.863,0.216
-0.863,0.184
-0.863,0.188
-0.863,0.208
-0.862,0.196
-0.862,0.212
-0.862,0.196
-0.862,0.184
-0.862,0.2
-0.861,0.208
-0.861,0.216
-0.861,0.216
-0.861,0.224
-0.861,0.232
-0.86,0.2
-0.86,0.216
-0.86,0.2
-0.86,0.184
-0.86,0.192
-0.859,0.2
-0.859,0.192
-0.859,0.208
-0.859,0.22
-0.859,0.22
-0.858,0.22
-0.858,0.236
-0.858,0.216
-0.858,0.22
-0.858,0.18
-0.857,0.184
-0.857,0.156
-0.857,0.148
-0.857,0.144
-0.857,0.12
-0.856,0.116
-0.856,0.124
-0.856,0.116
-0.856,0.128
-0.856,0.092
-0.855,0.092
-0.855,0.076
-0.855,0.048
-0.855,0.044
-0.855,0.036
-0.854,0.052
-0.854,0.056
-0.854,0.064
-0.854,0.052
-0.854,0.072
-0.853,0.1
-0.853,0.092
-0.853,0.116
-0.853,0.136
-0.853,0.148
-0.852,0.128
-0.852,0.16
-0.852,0.18
-0.852,0.184
-0.852,0.188
-0.851,0.18
-0.851,0.18
-0.851,0.18
-0.851,0.188
-0.851,0.152
-0.85,0.164
-0.85,0.152
-0.85,0.152
-0.85,0.144
-0.85,0.128
-0.849,0.136
-0.849,0.116
-0.849,0.128
-0.849,0.104
-0.849,0.104
-0.848,0.112
-0.848,0.124
-0.848,0.092
-0.848,0.1
-0.848,0.104
-0.847,0.088
-0.847,0.084
-0.847,0.08
-0.847,0.08
-0.847,0.092
-0.846,0.092
-0.846,0.1
-0.846,0.088
-0.846,0.112
-0.846,0.096
-0.845,0.104
-0.845,0.112
-0.845,0.08
-0.845,0.096
-0.845,0.1
-0.844,0.076
-0.844,0.092
-0.844,0.076
-0.844,0.088
-0.844,0.096
-0.843,0.108
-0.843,0.104
-0.843,0.112
-0.843,0.136
-0.843,0.136
-0.842,0.136
-0.842,0.132
-0.842,0.152
-0.842,0.148
-0.842,0.14
-0.841,0.132
-0.841,0.12
-0.841,0.108
-0.841,0.104
-0.841,0.068
-0.84,0.06
-0.84,0.06
-0.84,0.052
-0.84,0.044
-0.84,0.064
-0.839,0.032
-0.839,0.056
-0.839,0.064
-0.839,0.052
-0.839,0.052
-0.838,0.064
-0.838,0.076
-0.838,0.056
-0.838,0.076
-0.838,0.052
-0.837,0.044
-0.837,0.048
-0.837,0.032
-0.837,0.056
-0.837,0.044
-0.836,0.044
-0.836,0.044
-0.836,0.048
-0.836,0.04
-0.836,0.06
-0.835,0.064
-0.835,0.072
-0.835,0.048
-0.835,0.092
-0.835,0.088
-0.834,0.104
-0.834,0.092
-0.834,0.124
-0.834,0.12
-0.834,0.124
-0.833,0.12
-0.833,0.132
-0.833,0.152
-0.833,0.168
-0.833,0.164
-0.832,0.16
-0.832,0.2
-0.832,0.208
-0.832,0.196
-0.832,0.212
-0.831,0.192
-0.831,0.208
-0.831,0.22
-0.831,0.204
-0.831,0.2
-0.83,0.212
-0.83,0.184
-0.83,0.188
-0.83,0.212
-0.83,0.2
-0.829,0.212
-0.829,0.22
-0.829,0.212
-0.829,0.22
-0.829,0.204
-0.828,0.188
-0.828,0.192
-0.828,0.204
-0.828,0.192
-0.828,0.176
-0.827,0.18
-0.827,0.192
-0.827,0.164
-0.827,0.152
-0.827,0.156
-0.826,0.152
-0.826,0.148
-0.826,0.16
-0.826,0.128
-0.826,0.148
-0.825,0.156
-0.825,0.124
-0.825,0.128
-0.825,0.136
-0.825,0.112
-0.824,0.12
-0.824,0.08
-0.824,0.06
-0.824,0.064
-0.824,0.04
-0.823,0.02
-0.823,0.02
-0.823,0.024
-0.823,0.004
-0.823,-0.004
-0.822,-0.016
-0.822,-0.02
-0.822,-0.012
-0.822,-0.04
-0.822,-0.052
-0.821,-0.044
-0.821,-0.048
-0.821,-0.048
-0.821,-0.068
-0.821,-0.072
-0.82,-0.084
-0.82,-0.084
-0.82,-0.068
-0.82,-0.044
-0.82,-0.064
-0.819,-0.048
-0.819,-0.048
-0.819,-0.036
-0.819,-0.032
-0.819,0
-0.818,-0.036
-0.818,0
-0.818,-0.02
-0.818,-0.02
-0.818,-0.004
-0.817,-0.012
-0.817,-0.012
-0.817,-0.02
-0.817,-0.04
-0.817,-0.036
-0.816,-0.044
-0.816,-0.072
-0.816,-0.088
-0.816,-0.084
-0.816,-0.072
-0.815,-0.092
-0.815,-0.1
-0.815,-0.076
-0.815,-0.108
-0.815,-0.116
-0.814,-0.124
-0.814,-0.124
-0.814,-0.132
-0.814,-0.132
-0.814,-0.156
-0.813,-0.172
-0.813,-0.156
-0.813,-0.172
-0.813,-0.18
-0.813,-0.168
-0.812,-0.152
-0.812,-0.156
-0.812,-0.136
-0.812,-0.136
-0.812,-0.156
-0.811,-0.164
-0.811,-0.172
-0.811,-0.204
-0.811,-0.196
-0.811,-0.188
-0.81,-0.188
-0.81,-0.196
-0.81,-0.156
-0.81,-0.184
-0.81,-0.188
-0.809,-0.172
-0.809,-0.168
-0.809,-0.148
-0.809,-0.144
-0.809,-0.148
-0.808,-0.128
-0.808,-0.132
-0.808,-0.132
-0.808,-0.144
-0.808,-0.112
-0.807,-0.096
-0.807,-0.092
-0.807,-0.108
-0.807,-0.092
-0.807,-0.088
-0.806,-0.088
-0.806,-0.076
-0.806,-0.104
-0.806,-0.096
-0.806,-0.076
-0.805,-0.084
-0.805,-0.092
-0.805,-0.104
-0.805,-0.116
-0.805,-0.124
-0.804,-0.128
-0.804,-0.136
-0.804,-0.14
-0.804,-0.132
-0.804,-0.156
-0.803,-0.144
-0.803,-0.112
-0.803,-0.12
-0.803,-0.104
-0.803,-0.108
-0.802,-0.108
-0.802,-0.072
-0.802,-0.076
-0.802,-0.072
-0.802,-0.104
-0.801,-0.104
-0.801,-0.104
-0.801,-0.116
-0.801,-0.116
-0.801,-0.096
-0.8,-0.128
-0.8,-0.136
-0.8,-0.112
-0.8,-0.124
-0.8,-0.14
-0.799,-0.132
-0.799,-0.128
-0.799,-0.136
-0.799,-0.156
-0.799,-0.132
-0.798,-0.132
-0.798,-0.144
-0.798,-0.132
-0.798,-0.132
-0.798,-0.12
-0.797,-0.112
-0.797,-0.116
-0.797,-0.112
-0.797,-0.108
-0.797,-0.1
-0.796,-0.112
-0.796,-0.12
-0.796,-0.1
-0.796,-0.104
-0.796,-0.116
-0.795,-0.132
-0.795,-0.104
-0.795,-0.124
-0.795,-0.128
-0.795,-0.132
-0.794,-0.108
-0.794,-0.12
-0.794,-0.108
-0.794,-0.112
-0.794,-0.116
-0.793,-0.104
-0.793,-0.124
-0.793,-0.136
-0.793,-0.132
-0.793,-0.16
-0.792,-0.14
-0.792,-0.152
-0.792,-0.136
-0.792,-0.136
-0.792,-0.144
-0.791,-0.132
-0.791,-0.132
-0.791,-0.136
-0.791,-0.116
-0.791,-0.128
-0.79,-0.16
-0.79,-0.156
-0.79,-0.144
-0.79,-0.16
-0.79,-0.12
-0.789,-0.112
-0.789,-0.104
-0.789,-0.1
-0.789,-0.104
-0.789,-0.076
-0.788,-0.076
-0.788,-0.064
-0.788,-0.064
-0.788,-0.06
-0.788,-0.052
-0.787,-0.06
-0.787,-0.048
-0.787,-0.06
-0.787,-0.068
-0.787,-0.048
-0.786,-0.064
-0.786,-0.08
-0.786,-0.084
-0.786,-0.088
-0.786,-0.08
-0.785,-0.08
-0.785,-0.084
-0.785,-0.084
-0.785,-0.096
-0.785,-0.1
-0.784,-0.112
-0.784,-0.104
-0.784,-0.088
-0.784,-0.108
-0.784,-0.096
-0.783,-0.088
-0.783,-0.088
-0.783,-0.072
-0.783,-0.068
-0.783,-0.096
-0.782,-0.104
-0.782,-0.072
-0.782,-0.076
-0.782,-0.064
-0.782,-0.044
-0.781,-0.056
-0.781,-0.036
-0.781,-0.036
-0.781,-0.036
-0.781,-0.06
-0.78,-0.052
-0.78,-0.048
-0.78,-0.064
-0.78,-0.072
-0.78,-0.06
-0.779,-0.076
-0.779,-0.092
-0.779,-0.104
-0.779,-0.144
-0.779,-0.14
-0.778,-0.132
-0.778,-0.164
-0.778,-0.164
-0.778,-0.156
-0.778,-0.156
-0.777,-0.152
-0.777,-0.148
-0.777,-0.14
-0.777,-0.152
-0.777,-0.124
-0.776,-0.108
-0.776,-0.112
-0.776,-0.076
-0.776,-0.076
-0.776,-0.064
-0.775,-0.056
-0.775,-0.072
-0.775,-0.084
-0.775,-0.088
-0.775,-0.084
-0.774,-0.092
-0.774,-0.084
-0.774,-0.108
-0.774,-0.108
-0.774,-0.132
-0.773,-0.12
-0.773,-0.132
-0.773,-0.128
-0.773,-0.1
-0.773,-0.116
-0.772,-0.124
-0.772,-0.124
-0.772,-0.104
-0.772,-0.12
-0.772,-0.112
-0.771,-0.12
-0.771,-0.12
-0.771,-0.108
-0.771,-0.12
-0.771,-0.116
-0.77,-0.108
-0.77,-0.136
-0.77,-0.12
-0.77,-0.1
-0.77,-0.128
-0.769,-0.112
-0.769,-0.12
-0.769,-0.144
-0.769,-0.16
-0.769,-0.148
-0.768,-0.14
-0.768,-0.18
-0.768,-0.164
-0.768,-0.184
-0.768,-0.2
-0.767,-0.212
-0.767,-0.192
-0.767,-0.212
-0.767,-0.2
-0.767,-0.196
-0.766,-0.184
-0.766,-0.184
-0.766,-0.176
-0.766,-0.184
-0.766,-0.188
-0.765,-0.184
-0.765,-0.168
-0.765,-0.168
-0.765,-0.184
-0.765,-0.176
-0.764,-0.188
-0.764,-0.188
-0.764,-0.184
-0.764,-0.18
-0.764,-0.188
-0.763,-0.172
-0.763,-0.176
-0.763,-0.148
-0.763,-0.16
-0.763,-0.156
-0.762,-0.148
-0.762,-0.132
-0.762,-0.12
-0.762,-0.132
-0.762,-0.116
-0.761,-0.132
-0.761,-0.128
-0.761,-0.108
-0.761,-0.128
-0.761,-0.108
-0.76,-0.128
-0.76,-0.144
-0.76,-0.14
-0.76,-0.136
-0.76,-0.14
-0.759,-0.132
-0.759,-0.124
-0.759,-0.12
-0.759,-0.12
-0.759,-0.116
-0.758,-0.092
-0.758,-0.072
-0.758,-0.064
-0.758,-0.06
-0.758,-0.032
-0.757,-0.012
-0.757,-0.004
-0.757,-0.012
-0.757,-0.016
-0.757,0
-0.756,-0.012
-0.756,-0.02
-0.756,-0.02
-0.756,-0.036
-0.756,-0.032
-0.755,-0.032
-0.755,-0.068
-0.755,-0.068
-0.755,-0.072
-0.755,-0.08
-0.754,-0.076
-0.754,-0.088
-0.754,-0.108
-0.754,-0.104
-0.754,-0.128
-0.753,-0.14
-0.753,-0.124
-0.753,-0.128
-0.753,-0.14
-0.753,-0.128
-0.752,-0.136
-0.752,-0.148
-0.752,-0.16
-0.752,-0.136
-0.752,-0.164
-0.751,-0.152
-0.751,-0.156
-0.751,-0.144
-0.751,-0.148
-0.751,-0.16
-0.75,-0.168
-0.75,-0.18
-0.75,-0.172
-0.75,-0.164
-0.75,-0.18
-0.749,-0.172
-0.749,-0.16
-0.749,-0.172
-0.749,-0.16
-0.749,-0.156
-0.748,-0.164
-0.748,-0.164
-0.748,-0.14
-0.748,-0.164
-0.748,-0.132
-0.747,-0.14
-0.747,-0.144
-0.747,-0.128
-0.747,-0.136
-0.747,-0.124
-0.746,-0.116
-0.746,-0.112
-0.746,-0.12
-0.746,-0.092
-0.746,-0.08
-0.745,-0.104
-0.745,-0.08
-0.745,-0.052
-0.745,-0.084
-0.745,-0.06
-0.744,-0.052
-0.744,-0.044
-0.744,-0.048
-0.744,-0.032
-0.744,-0.048
-0.743,-0.028
-0.743,-0.036
-0.743,-0.008
-0.743,-0.012
-0.743,0
-0.742,0.004
-0.742,-0.008
-0.742,0.008
-0.742,0.036
-0.742,0.02
-0.741,0.016
-0.741,0.02
-0.741,0.024
-0.741,0.02
-0.741,0.024
-0.74,0.008
-0.74,0.008
-0.74,0.024
-0.74,0.016
-0.74,0.004
-0.739,-0.004
-0.739,-0.016
-0.739,-0.024
-0.739,-0.016
-0.739,-0.036
-0.738,-0.012
-0.738,-0.012
-0.738,-0.008
-0.738,-0.02
-0.738,0.012
-0.737,0.004
-0.737,-0.012
-0.737,-0.008
-0.737,-0.04
-0.737,-0.032
-0.736,-0.04
-0.736,-0.064
-0.736,-0.056
-0.736,-0.1
-0.736,-0.068
-0.735,-0.116
-0.735,-0.108
-0.735,-0.1
-0.735,-0.12
-0.735,-0.124
-0.734,-0.124
-0.734,-0.144
-0.734,-0.148
-0.734,-0.16
-0.734,-0.18
-0.733,-0.188
-0.733,-0.196
-0.733,-0.208
-0.733,-0.204
-0.733,-0.2
-0.732,-0.204
-0.732,-0.192
-0.732,-0.18
-0.732,-0.176
-0.732,-0.168
-0.731,-0.16
-0.731,-0.12
-0.731,-0.12
-0.731,-0.104
-0.731,-0.096
-0.73,-0.092
-0.73,-0.076
-0.73,-0.084
-0.73,-0.08
-0.73,-0.084
-0.729,-0.068
-0.729,-0.072
-0.729,-0.064
-0.729,-0.044
-0.729,-0.04
-0.728,-0.016
-0.728,-0.012
-0.728,-0.012
-0.728,0.012
-0.728,0.028
-0.727,0.06
-0.727,0.032
-0.727,0.084
-0.727,0.04
-0.727,0.04
-0.726,0.052
-0.726,0.028
-0.726,0.024
-0.726,0.012
-0.726,-0.016
-0.725,-0.004
-0.725,-0.004
-0.725,-0.04
-0.725,-0.028
-0.725,-0.048
-0.724,-0.06
-0.724,-0.08
-0.724,-0.092
-0.724,-0.096
-0.724,-0.092
-0.723,-0.112
-0.723,-0.128
-0.723,-0.132
-0.723,-0.1
-0.723,-0.096
-0.722,-0.096
-0.722,-0.104
-0.722,-0.08
-0.722,-0.088
-0.722,-0.084
-0.721,-0.076
-0.721,-0.068
-0.721,-0.08
-0.721,-0.064
-0.721,-0.056
-0.72,-0.056
-0.72,-0.032
-0.72,-0.036
-0.72,-0.024
-0.72,-0.02
-0.719,-0.008
-0.719,-0.008
-0.719,-0.012
-0.719,-0.008
-0.719,-0.024
-0.718,-0.024
-0.718,-0.02
-0.718,-0.04
-0.718,-0.028
-0.718,-0.056
-0.717,-0.052
-0.717,-0.064
-0.717,-0.064
-0.717,-0.06
-0.717,-0.048
-0.716,-0.032
-0.716,-0.016
-0.716,-0.004
-0.716,0.016
-0.716,0.028
-0.715,0.056
-0.715,0.072
-0.715,0.092
-0.715,0.104
-0.715,0.1
-0.714,0.092
-0.714,0.092
-0.714,0.076
-0.714,0.06
-0.714,0.056
-0.713,0.044
-0.713,-0.004
-0.713,0.016
-0.713,0.012
-0.713,0.004
-0.712,0.004
-0.712,0.012
-0.712,0.024
-0.712,0.004
-0.712,0.008
-0.711,0.008
-0.711,-0.004
-0.711,0.02
-0.711,-0.024
-0.711,-0.028
-0.71,-0.016
-0.71,-0.016
-0.71,-0.052
-0.71,-0.072
-0.71,-0.068
-0.709,-0.092
-0.709,-0.088
-0.709,-0.068
-0.709,-0.088
-0.709,-0.096
-0.708,-0.06
-0.708,-0.088
-0.708,-0.08
-0.708,-0.088
-0.708,-0.104
-0.707,-0.092
-0.707,-0.08
-0.707,-0.092
-0.707,-0.1
-0.707,-0.112
-0.706,-0.096
-0.706,-0.08
-0.706,-0.12
-0.706,-0.104
-0.706,-0.104
-0.705,-0.088
-0.705,-0.108
-0.705,-0.092
-0.705,-0.088
-0.705,-0.092
-0.704,-0.104
-0.704,-0.1
-0.704,-0.092
-0.704,-0.096
-0.704,-0.092
-0.703,-0.104
-0.703,-0.132
-0.703,-0.1
-0.703,-0.1
-0.703,-0.108
-0.702,-0.104
-0.702,-0.092
-0.702,-0.092
-0.702,-0.096
-0.702,-0.104
-0.701,-0.112
-0.701,-0.116
-0.701,-0.088
-0.701,-0.104
-0.701,-0.116
-0.7,-0.104
-0.7,-0.124
-0.7,-0.112
-0.7,-0.112
-0.7,-0.104
-0.699,-0.104
-0.699,-0.084
-0.699,-0.088
-0.699,-0.112
-0.699,-0.08
-0.698,-0.08
-0.698,-0.072
-0.698,-0.052
-0.698,-0.068
-0.698,-0.036
-0.697,-0.016
-0.697,-0.008
-0.697,0.004
-0.697,0.012
-0.697,0.024
-0.696,0.04
-0.696,0.068
-0.696,0.056
-0.696,0.068
-0.696,0.084
-0.695,0.08
-0.695,0.072
-0.695,0.084
-0.695,0.096
-0.695,0.08
-0.694,0.064
-0.694,0.056
-0.694,0.064
-0.694,0.068
-0.694,0.06
-0.693,0.032
-0.693,0.008
-0.693,0.036
-0.693,0.024
-0.693,0
-0.692,0.012
-0.692,-0.012
-0.692,-0.032
-0.692,-0.012
-0.692,0.008
-0.691,-0.016
-0.691,-0.008
-0.691,0.004
-0.691,0.028
-0.691,0.028
-0.69,0.044
-0.69,0.04
-0.69,0.06
-0.69,0.048
-0.69,0.04
-0.689,0.04
-0.689,0.048
-0.689,0.032
-0.689,0.008
-0.689,0.016
-0.688,0
-0.688,-0.008
-0.688,-0.028
-0.688,-0.036
-0.688,-0.056
-0.687,-0.024
-0.687,-0.04
-0.687,-0.048
-0.687,-0.052
-0.687,-0.044
-0.686,-0.032
-0.686,-0.044
-0.686,-0.044
-0.686,-0.04
-0.686,-0.008
-0.685,0.004
-0.685,0.012
-0.685,0.052
-0.685,0.064
-0.685,0.056
-0.684,0.088
-0.684,0.084
-0.684,0.1
-0.684,0.116
-0.684,0.128
-0.683,0.12
-0.683,0.14
-0.683,0.14
-0.683,0.14
-0.683,0.168
-0.682,0.176
-0.682,0.18
-0.682,0.18
-0.682,0.196
-0.682,0.188
-0.681,0.172
-0.681,0.18
-0.681,0.18
-0.681,0.172
-0.681,0.18
-0.68,0.172
-0.68,0.172
-0.68,0.172
-0.68,0.16
-0.68,0.148
-0.679,0.148
-0.679,0.152
-0.679,0.132
-0.679,0.136
-0.679,0.14
-0.678,0.144
-0.678,0.172
-0.678,0.176
-0.678,0.168
-0.678,0.216
-0.677,0.196
-0.677,0.22
-0.677,0.22
-0.677,0.228
-0.677,0.212
-0.676,0.216
-0.676,0.212
-0.676,0.232
-0.676,0.244
-0.676,0.256
-0.675,0.252
-0.675,0.244
-0.675,0.264
-0.675,0.252
-0.675,0.248
-0.674,0.248
-0.674,0.264
-0.674,0.248
-0.674,0.268
-0.674,0.272
-0.673,0.276
-0.673,0.276
-0.673,0.276
-0.673,0.296
-0.673,0.32
-0.672,0.348
-0.672,0.34
-0.672,0.38
-0.672,0.404
-0.672,0.4
-0.671,0.412
-0.671,0.44
-0.671,0.46
-0.671,0.48
-0.671,0.484
-0.67,0.48
-0.67,0.512
-0.67,0.504
-0.67,0.512
-0.67,0.512
-0.669,0.536
-0.669,0.536
-0.669,0.552
-0.669,0.556
-0.669,0.568
-0.668,0.604
-0.668,0.636
-0.668,0.64
-0.668,0.7
-0.668,0.72
-0.667,0.748
-0.667,0.768
-0.667,0.784
-0.667,0.812
-0.667,0.8
-0.666,0.812
-0.666,0.8
-0.666,0.792
-0.666,0.792
-0.666,0.8
-0.665,0.78
-0.665,0.784
-0.665,0.756
-0.665,0.728
-0.665,0.72
-0.664,0.692
-0.664,0.66
-0.664,0.66
-0.664,0.66
-0.664,0.636
-0.663,0.652
-0.663,0.656
-0.663,0.632
-0.663,0.636
-0.663,0.624
-0.662,0.6
-0.662,0.596
-0.662,0.596
-0.662,0.56
-0.662,0.548
-0.661,0.564
-0.661,0.528
-0.661,0.52
-0.661,0.504
-0.661,0.468
-0.66,0.448
-0.66,0.46
-0.66,0.436
-0.66,0.424
-0.66,0.408
-0.659,0.416
-0.659,0.388
-0.659,0.388
-0.659,0.376
-0.659,0.36
-0.658,0.368
-0.658,0.356
-0.658,0.324
-0.658,0.312
-0.658,0.296
-0.657,0.272
-0.657,0.236
-0.657,0.232
-0.657,0.196
-0.657,0.196
-0.656,0.188
-0.656,0.176
-0.656,0.152
-0.656,0.152
-0.656,0.128
-0.655,0.152
-0.655,0.136
-0.655,0.12
-0.655,0.136
-0.655,0.144
-0.654,0.116
-0.654,0.088
-0.654,0.116
-0.654,0.108
-0.654,0.096
-0.653,0.096
-0.653,0.06
-0.653,0.1
-0.653,0.08
-0.653,0.052
-0.652,0.044
-0.652,0.056
-0.652,0.052
-0.652,0.04
-0.652,0.048
-0.651,0.052
-0.651,0.04
-0.651,0.032
-0.651,0.044
-0.651,0.016
-0.65,0.032
-0.65,0.016
-0.65,-0.024
-0.65,-0.024
-0.65,-0.012
-0.649,-0.016
-0.649,-0.024
-0.649,-0.024
-0.649,-0.028
-0.649,-0.06
-0.648,-0.064
-0.648,-0.108
-0.648,-0.1
-0.648,-0.12
-0.648,-0.128
-0.647,-0.14
-0.647,-0.16
-0.647,-0.18
-0.647,-0.2
-0.647,-0.216
-0.646,-0.228
-0.646,-0.264
-0.646,-0.268
-0.646,-0.26
-0.646,-0.288
-0.645,-0.284
-0.645,-0.3
-0.645,-0.328
-0.645,-0.312
-0.645,-0.32
-0.644,-0.324
-0.644,-0.328
-0.644,-0.308
-0.644,-0.324
-0.644,-0.324
-0.643,-0.328
-0.643,-0.336
-0.643,-0.324
-0.643,-0.32
-0.643,-0.344
-0.642,-0.36
-0.642,-0.34
-0.642,-0.336
-0.642,-0.36
-0.642,-0.352
-0.641,-0.36
-0.641,-0.372
-0.641,-0.376
-0.641,-0.38
-0.641,-0.384
-0.64,-0.396
-0.64,-0.412
-0.64,-0.44
-0.64,-0.444
-0.64,-0.456
-0.639,-0.476
-0.639,-0.484
-0.639,-0.492
-0.639,-0.536
-0.639,-0.548
-0.638,-0.552
-0.638,-0.556
-0.638,-0.548
-0.638,-0.568
-0.638,-0.58
-0.637,-0.596
-0.637,-0.576
-0.637,-0.6
-0.637,-0.588
-0.637,-0.576
-0.636,-0.58
-0.636,-0.576
-0.636,-0.564
-0.636,-0.544
-0.636,-0.556
-0.635,-0.552
-0.635,-0.544
-0.635,-0.56
-0.635,-0.512
-0.635,-0.528
-0.634,-0.54
-0.634,-0.516
-0.634,-0.524
-0.634,-0.516
-0.634,-0.52
-0.633,-0.516
-0.633,-0.516
-0.633,-0.532
-0.633,-0.528
-0.633,-0.52
-0.632,-0.512
-0.632,-0.496
-0.632,-0.5
-0.632,-0.504
-0.632,-0.52
-0.631,-0.54
-0.631,-0.524
-0.631,-0.516
-0.631,-0.516
-0.631,-0.532
-0.63,-0.524
-0.63,-0.508
-0.63,-0.52
-0.63,-0.532
-0.63,-0.54
-0.629,-0.532
-0.629,-0.508
-0.629,-0.504
-0.629,-0.532
-0.629,-0.5
-0.628,-0.504
-0.628,-0.516
-0.628,-0.488
-0.628,-0.496
-0.628,-0.492
-0.627,-0.464
-0.627,-0.46
-0.627,-0.452
-0.627,-0.452
-0.627,-0.46
-0.626,-0.46
-0.626,-0.452
-0.626,-0.468
-0.626,-0.46
-0.626,-0.448
-0.625,-0.452
-0.625,-0.48
-0.625,-0.464
-0.625,-0.44
-0.625,-0.448
-0.624,-0.472
-0.624,-0.48
-0.624,-0.444
-0.624,-0.468
-0.624,-0.464
-0.623,-0.476
-0.623,-0.488
-0.623,-0.48
-0.623,-0.488
-0.623,-0.48
-0.622,-0.476
-0.622,-0.48
-0.622,-0.464
-0.622,-0.444
-0.622,-0.44
-0.621,-0.44
-0.621,-0.42
-0.621,-0.42
-0.621,-0.432
-0.621,-0.44
-0.62,-0.428
-0.62,-0.436
-0.62,-0.424
-0.62,-0.44
-0.62,-0.432
-0.619,-0.392
-0.619,-0.384
-0.619,-0.376
-0.619,-0.36
-0.619,-0.356
-0.618,-0.348
-0.618,-0.328
-0.618,-0.316
-0.618,-0.304
-0.618,-0.276
-0.617,-0.28
-0.617,-0.276
-0.617,-0.24
-0.617,-0.228
-0.617,-0.22
-0.616,-0.236
-0.616,-0.188
-0.616,-0.168
-0.616,-0.128
-0.616,-0.136
-0.615,-0.112
-0.615,-0.084
-0.615,-0.036
-0.615,-0.032
-0.615,-0.02
-0.614,-0.004
-0.614,0.012
-0.614,0
-0.614,0.012
-0.614,-0.004
-0.613,-0.012
-0.613,0
-0.613,-0.004
-0.613,-0.016
-0.613,0.016
-0.612,0.016
-0.612,0
-0.612,0.028
-0.612,0.044
-0.612,0
-0.611,0.008
-0.611,-0.008
-0.611,-0.004
-0.611,0
-0.611,0.004
-0.61,-0.008
-0.61,0.028
-0.61,0.032
-0.61,0.028
-0.61,0.028
-0.609,0.064
-0.609,0.072
-0.609,0.06
-0.609,0.064
-0.609,0.084
-0.608,0.096
-0.608,0.1
-0.608,0.104
-0.608,0.1
-0.608,0.116
-0.607,0.132
-0.607,0.08
-0.607,0.068
-0.607,0.044
-0.607,0.024
-0.606,0.016
-0.606,-0.004
-0.606,-0.028
-0.606,-0.044
-0.606,-0.052
-0.605,-0.056
-0.605,-0.06
-0.605,-0.04
-0.605,-0.036
-0.605,-0.044
-0.604,-0.032
-0.604,-0.048
-0.604,-0.036
-0.604,-0.024
-0.604,-0.02
-0.603,-0.02
-0.603,0.008
-0.603,0.016
-0.603,0.004
-0.603,0.032
-0.602,0.032
-0.602,0.024
-0.602,0.06
-0.602,0.048
-0.602,0.04
-0.601,0.064
-0.601,0.064
-0.601,0.048
-0.601,0.06
-0.601,0.048
-0.6,0.06
-0.6,0.072
-0.6,0.08
-0.6,0.088
-0.6,0.084
-0.599,0.12
-0.599,0.092
-0.599,0.096
-0.599,0.096
-0.599,0.088
-0.598,0.068
-0.598,0.048
-0.598,0.044
-0.598,0.024
-0.598,0.04
-0.597,-0.004
-0.597,0.008
-0.597,-0.02
-0.597,-0.024
-0.597,-0.048
-0.596,-0.044
-0.596,-0.056
-0.596,-0.056
-0.596,-0.028
-0.596,-0.02
-0.595,-0.032
-0.595,-0.032
-0.595,-0.04
-0.595,-0.056
-0.595,-0.036
-0.594,-0.064
-0.594,-0.064
-0.594,-0.064
-0.594,-0.064
-0.594,-0.056
-0.593,-0.04
-0.593,-0.024
-0.593,-0.02
-0.593,0.008
-0.593,-0.008
-0.592,0.004
-0.592,0.024
-0.592,0.04
-0.592,0.028
-0.592,0.036
-0.591,0.024
-0.591,0.004
-0.591,0.008
-0.591,0.016
-0.591,0
-0.59,0
-0.59,0
-0.59,0.008
-0.59,-0.004
-0.59,0.012
-0.589,0.008
-0.589,0.02
-0.589,-0.032
-0.589,0.008
-0.589,0
-0.588,-0.016
-0.588,-0.016
-0.588,0.008
-0.588,0.004
-0.588,0.004
-0.587,0.02
-0.587,0.016
-0.587,0.036
-0.587,0.044
-0.587,0.048
-0.586,0.068
-0.586,0.08
-0.586,0.064
-0.586,0.076
-0.586,0.056
-0.585,0.088
-0.585,0.084
-0.585,0.088
-0.585,0.076
-0.585,0.072
-0.584,0.064
-0.584,0.064
-0.584,0.08
-0.584,0.06
-0.584,0.044
-0.583,0.06
-0.583,0.04
-0.583,0.024
-0.583,0.032
-0.583,0.016
-0.582,0.028
-0.582,0.02
-0.582,0.024
-0.582,0.028
-0.582,0.048
-0.581,0.04
-0.581,0.02
-0.581,0.012
-0.581,0.028
-0.581,0.024
-0.58,0.032
-0.58,0.036
-0.58,0.028
-0.58,-0.012
-0.58,0.004
-0.579,-0.012
-0.579,-0.008
-0.579,-0.02
-0.579,0.004
-0.579,0.016
-0.578,0.008
-0.578,0.032
-0.578,0.06
-0.578,0.06
-0.578,0.08
-0.577,0.084
-0.577,0.112
-0.577,0.1
-0.577,0.124
-0.577,0.144
-0.576,0.14
-0.576,0.148
-0.576,0.156
-0.576,0.156
-0.576,0.172
-0.575,0.176
-0.575,0.148
-0.575,0.172
-0.575,0.156
-0.575,0.184
-0.574,0.184
-0.574,0.14
-0.574,0.164
-0.574,0.148
-0.574,0.144
-0.573,0.14
-0.573,0.152
-0.573,0.16
-0.573,0.136
-0.573,0.152
-0.572,0.152
-0.572,0.172
-0.572,0.168
-0.572,0.144
-0.572,0.164
-0.571,0.172
-0.571,0.18
-0.571,0.188
-0.571,0.168
-0.571,0.18
-0.57,0.176
-0.57,0.184
-0.57,0.176
-0.57,0.188
-0.57,0.168
-0.569,0.144
-0.569,0.156
-0.569,0.144
-0.569,0.12
-0.569,0.152
-0.568,0.136
-0.568,0.14
-0.568,0.108
-0.568,0.136
-0.568,0.112
-0.567,0.092
-0.567,0.072
-0.567,0.08
-0.567,0.092
-0.567,0.088
-0.566,0.08
-0.566,0.052
-0.566,0.064
-0.566,0.052
-0.566,0.052
-0.565,0.04
-0.565,0.028
-0.565,0.032
-0.565,0.04
-0.565,0.028
-0.564,0.012
-0.564,0.02
-0.564,0.02
-0.564,0.016
-0.564,0.02
-0.563,0.032
-0.563,0.036
-0.563,0.052
-0.563,0.048
-0.563,0.016
-0.562,0.056
-0.562,0.072
-0.562,0.048
-0.562,0.08
-0.562,0.08
-0.561,0.064
-0.561,0.1
-0.561,0.072
-0.561,0.084
-0.561,0.076
-0.56,0.096
-0.56,0.116
-0.56,0.088
-0.56,0.088
-0.56,0.12
-0.559,0.108
-0.559,0.116
-0.559,0.1
-0.559,0.068
-0.559,0.084
-0.558,0.076
-0.558,0.064
-0.558,0.064
-0.558,0.064
-0.558,0.068
-0.557,0.06
-0.557,0.02
-0.557,0.024
-0.557,0.016
-0.557,0.008
-0.556,0
-0.556,-0.004
-0.556,-0.04
-0.556,-0.016
-0.556,-0.02
-0.555,-0.036
-0.555,-0.032
-0.555,-0.032
-0.555,-0.024
-0.555,-0.032
-0.554,-0.028
-0.554,-0.04
-0.554,-0.052
-0.554,-0.04
-0.554,-0.048
-0.553,-0.048
-0.553,-0.06
-0.553,-0.04
-0.553,-0.04
-0.553,-0.064
-0.552,-0.08
-0.552,-0.044
-0.552,-0.088
-0.552,-0.06
-0.552,-0.068
-0.551,-0.084
-0.551,-0.064
-0.551,-0.06
-0.551,-0.068
-0.551,-0.04
-0.55,0.008
-0.55,0
-0.55,-0.008
-0.55,0.004
-0.55,0.016
-0.549,0.016
-0.549,0.032
-0.549,0.004
-0.549,0.008
-0.549,0.016
-0.548,0.012
-0.548,0.016
-0.548,0.02
-0.548,0.012
-0.548,0.012
-0.547,0.008
-0.547,0.012
-0.547,0
-0.547,0.012
-0.547,-0.02
-0.546,-0.02
-0.546,-0.06
-0.546,-0.048
-0.546,-0.06
-0.546,-0.052
-0.545,-0.056
-0.545,-0.044
-0.545,-0.076
-0.545,-0.052
-0.545,-0.052
-0.544,-0.048
-0.544,-0.032
-0.544,-0.028
-0.544,0
-0.544,-0.012
-0.543,0.02
-0.543,0.02
-0.543,0.02
-0.543,0.032
-0.543,0.04
-0.542,0.044
-0.542,0.06
-0.542,0.064
-0.542,0.036
-0.542,0.016
-0.541,0.02
-0.541,0.024
-0.541,0.012
-0.541,0.004
-0.541,0.004
-0.54,0.012
-0.54,0.024
-0.54,0.016
-0.54,0.032
-0.54,0.044
-0.539,0.04
-0.539,0.052
-0.539,0.044
-0.539,0.08
-0.539,0.096
-0.538,0.088
-0.538,0.072
-0.538,0.084
-0.538,0.108
-0.538,0.104
-0.537,0.084
-0.537,0.08
-0.537,0.048
-0.537,0.052
-0.537,0.024
-0.536,0.02
-0.536,0.012
-0.536,0.004
-0.536,0
-0.536,-0.02
-0.535,-0.044
-0.535,-0.04
-0.535,-0.056
-0.535,-0.056
-0.535,-0.084
-0.534,-0.064
-0.534,-0.076
-0.534,-0.048
-0.534,-0.068
-0.534,-0.068
-0.533,-0.052
-0.533,-0.04
-0.533,-0.036
-0.533,-0.044
-0.533,-0.028
-0.532,0.004
-0.532,0.012
-0.532,-0.004
-0.532,0.012
-0.532,0.004
-0.531,-0.004
-0.531,0.02
-0.531,0.004
-0.531,-0.004
-0.531,0
-0.53,0.032
-0.53,0.008
-0.53,0.036
-0.53,0.04
-0.53,0.036
-0.529,0.044
-0.529,0.04
-0.529,0.032
-0.529,0.048
-0.529,0.056
-0.528,0.048
-0.528,0.064
-0.528,0.048
-0.528,0.072
-0.528,0.068
-0.527,0.088
-0.527,0.076
-0.527,0.08
-0.527,0.084
-0.527,0.084
-0.526,0.056
-0.526,0.052
-0.526,0.044
-0.526,0.036
-0.526,0.04
-0.525,0.032
-0.525,0.032
-0.525,0.036
-0.525,0.044
-0.525,0.028
-0.524,0.048
-0.524,0.044
-0.524,0.056
-0.524,0.072
-0.524,0.072
-0.523,0.056
-0.523,0.08
-0.523,0.092
-0.523,0.088
-0.523,0.076
-0.522,0.068
-0.522,0.092
-0.522,0.08
-0.522,0.072
-0.522,0.06
-0.521,0.052
-0.521,0.036
-0.521,0.024
-0.521,0.012
-0.521,0.028
-0.52,0.02
-0.52,0.02
-0.52,0.004
-0.52,0.008
-0.52,0.024
-0.519,0.02
-0.519,0.024
-0.519,0.032
-0.519,0.048
-0.519,0.02
-0.518,0.044
-0.518,0.052
-0.518,0.064
-0.518,0.052
-0.518,0.056
-0.517,0.052
-0.517,0.016
-0.517,0.024
-0.517,0.012
-0.517,-0.004
-0.516,-0.012
-0.516,-0.024
-0.516,-0.036
-0.516,-0.036
-0.516,-0.04
-0.515,-0.068
-0.515,-0.044
-0.515,-0.036
-0.515,-0.06
-0.515,-0.052
-0.514,-0.036
-0.514,-0.016
-0.514,-0.02
-0.514,-0.012
-0.514,-0.04
-0.513,0.02
-0.513,0.016
-0.513,0.004
-0.513,0.012
-0.513,0.012
-0.512,0.024
-0.512,0.028
-0.512,0.016
-0.512,0.036
-0.512,0.028
-0.511,0.02
-0.511,0.032
-0.511,0.024
-0.511,0.044
-0.511,0.04
-0.51,0.044
-0.51,0.064
-0.51,0.052
-0.51,0.056
-0.51,0.096
-0.509,0.108
-0.509,0.128
-0.509,0.152
-0.509,0.18
-0.509,0.192
-0.508,0.2
-0.508,0.2
-0.508,0.192
-0.508,0.192
-0.508,0.2
-0.507,0.192
-0.507,0.188
-0.507,0.152
-0.507,0.152
-0.507,0.148
-0.506,0.132
-0.506,0.124
-0.506,0.108
-0.506,0.092
-0.506,0.068
-0.505,0.036
-0.505,0.032
-0.505,0.048
-0.505,0.008
-0.505,-0.012
-0.504,-0.02
-0.504,-0.036
-0.504,-0.048
-0.504,-0.048
-0.504,-0.068
-0.503,-0.072
-0.503,-0.052
-0.503,-0.068
-0.503,-0.072
-0.503,-0.04
-0.502,-0.028
-0.502,-0.016
-0.502,0.012
-0.502,0.02
-0.502,0.036
-0.501,0.064
-0.501,0.056
-0.501,0.092
-0.501,0.092
-0.501,0.108
-0.5,0.128
-0.5,0.136
-0.5,0.144
-0.5,0.168
-0.5,0.156
-0.499,0.16
-0.499,0.148
-0.499,0.172
-0.499,0.148
-0.499,0.148
-0.498,0.148
-0.498,0.132
-0.498,0.096
-0.498,0.128
-0.498,0.108
-0.497,0.116
-0.497,0.1
-0.497,0.108
-0.497,0.124
-0.497,0.128
-0.496,0.136
-0.496,0.112
-0.496,0.152
-0.496,0.144
-0.496,0.124
-0.495,0.148
-0.495,0.144
-0.495,0.136
-0.495,0.14
-0.495,0.128
-0.494,0.124
-0.494,0.144
-0.494,0.136
-0.494,0.112
-0.494,0.116
-0.493,0.096
-0.493,0.1
-0.493,0.108
-0.493,0.088
-0.493,0.1
-0.492,0.112
-0.492,0.116
-0.492,0.128
-0.492,0.12
-0.492,0.128
-0.491,0.14
-0.491,0.168
-0.491,0.148
-0.491,0.152
-0.491,0.132
-0.49,0.136
-0.49,0.14
-0.49,0.144
-0.49,0.108
-0.49,0.12
-0.489,0.124
-0.489,0.116
-0.489,0.116
-0.489,0.124
-0.489,0.112
-0.488,0.112
-0.488,0.108
-0.488,0.092
-0.488,0.112
-0.488,0.104
-0.487,0.116
-0.487,0.116
-0.487,0.104
-0.487,0.096
-0.487,0.108
-0.486,0.096
-0.486,0.112
-0.486,0.112
-0.486,0.084
-0.486,0.084
-0.485,0.084
-0.485,0.088
-0.485,0.088
-0.485,0.08
-0.485,0.08
-0.484,0.08
-0.484,0.068
-0.484,0.056
-0.484,0.06
-0.484,0.048
-0.483,0.032
-0.483,0.032
-0.483,-0.008
-0.483,0.032
-0.483,0.008
-0.482,0.012
-0.482,0.044
-0.482,0.056
-0.482,0.044
-0.482,0.056
-0.481,0.056
-0.481,0.08
-0.481,0.076
-0.481,0.068
-0.481,0.1
-0.48,0.108
-0.48,0.108
-0.48,0.112
-0.48,0.124
-0.48,0.12
-0.479,0.104
-0.479,0.116
-0.479,0.108
-0.479,0.116
-0.479,0.124
-0.478,0.124
-0.478,0.12
-0.478,0.136
-0.478,0.14
-0.478,0.104
-0.477,0.1
-0.477,0.096
-0.477,0.088
-0.477,0.056
-0.477,0.044
-0.476,0.016
-0.476,0.016
-0.476,0.008
-0.476,-0.012
-0.476,0.012
-0.475,-0.004
-0.475,-0.02
-0.475,0
-0.475,0.004
-0.475,0
-0.474,-0.012
-0.474,-0.024
-0.474,-0.036
-0.474,-0.048
-0.474,-0.036
-0.473,-0.032
-0.473,-0.04
-0.473,-0.016
-0.473,-0.02
-0.473,-0.008
-0.472,0.004
-0.472,0.036
-0.472,0.048
-0.472,0.068
-0.472,0.064
-0.471,0.084
-0.471,0.112
-0.471,0.116
-0.471,0.112
-0.471,0.14
-0.47,0.148
-0.47,0.132
-0.47,0.148
-0.47,0.144
-0.47,0.132
-0.469,0.14
-0.469,0.132
-0.469,0.132
-0.469,0.148
-0.469,0.164
-0.468,0.124
-0.468,0.136
-0.468,0.124
-0.468,0.14
-0.468,0.132
-0.467,0.132
-0.467,0.124
-0.467,0.116
-0.467,0.128
-0.467,0.116
-0.466,0.1
-0.466,0.128
-0.466,0.136
-0.466,0.148
-0.466,0.164
-0.465,0.172
-0.465,0.208
-0.465,0.208
-0.465,0.244
-0.465,0.224
-0.464,0.232
-0.464,0.244
-0.464,0.256
-0.464,0.256
-0.464,0.236
-0.463,0.232
-0.463,0.252
-0.463,0.244
-0.463,0.264
-0.463,0.248
-0.462,0.28
-0.462,0.28
-0.462,0.272
-0.462,0.288
-0.462,0.296
-0.461,0.312
-0.461,0.32
-0.461,0.304
-0.461,0.312
-0.461,0.32
-0.46,0.32
-0.46,0.308
-0.46,0.328
-0.46,0.336
-0.46,0.352
-0.459,0.352
-0.459,0.352
-0.459,0.348
-0.459,0.364
-0.459,0.356
-0.458,0.376
-0.458,0.368
-0.458,0.388
-0.458,0.408
-0.458,0.4
-0.457,0.412
-0.457,0.412
-0.457,0.388
-0.457,0.388
-0.457,0.42
-0.456,0.36
-0.456,0.376
-0.456,0.372
-0.456,0.384
-0.456,0.376
-0.455,0.36
-0.455,0.368
-0.455,0.376
-0.455,0.384
-0.455,0.368
-0.454,0.352
-0.454,0.38
-0.454,0.344
-0.454,0.34
-0.454,0.328
-0.453,0.328
-0.453,0.328
-0.453,0.336
-0.453,0.328
-0.453,0.344
-0.452,0.34
-0.452,0.352
-0.452,0.372
-0.452,0.368
-0.452,0.376
-0.451,0.388
-0.451,0.392
-0.451,0.38
-0.451,0.392
-0.451,0.38
-0.45,0.372
-0.45,0.352
-0.45,0.36
-0.45,0.348
-0.45,0.34
-0.449,0.348
-0.449,0.32
-0.449,0.328
-0.449,0.336
-0.449,0.32
-0.448,0.308
-0.448,0.316
-0.448,0.296
-0.448,0.308
-0.448,0.304
-0.447,0.28
-0.447,0.256
-0.447,0.244
-0.447,0.22
-0.447,0.208
-0.446,0.196
-0.446,0.188
-0.446,0.16
-0.446,0.156
-0.446,0.152
-0.445,0.136
-0.445,0.12
-0.445,0.136
-0.445,0.128
-0.445,0.112
-0.444,0.108
-0.444,0.12
-0.444,0.092
-0.444,0.088
-0.444,0.12
-0.443,0.12
-0.443,0.128
-0.443,0.14
-0.443,0.144
-0.443,0.144
-0.442,0.144
-0.442,0.136
-0.442,0.136
-0.442,0.124
-0.442,0.116
-0.441,0.08
-0.441,0.072
-0.441,0.04
-0.441,0.016
-0.441,-0.004
-0.44,-0.044
-0.44,-0.08
-0.44,-0.088
-0.44,-0.112
-0.44,-0.144
-0.439,-0.148
-0.439,-0.164
-0.439,-0.188
-0.439,-0.184
-0.439,-0.196
-0.438,-0.216
-0.438,-0.236
-0.438,-0.248
-0.438,-0.28
-0.438,-0.272
-0.437,-0.292
-0.437,-0.308
-0.437,-0.308
-0.437,-0.332
-0.437,-0.332
-0.436,-0.336
-0.436,-0.336
-0.436,-0.316
-0.436,-0.344
-0.436,-0.344
-0.435,-0.372
-0.435,-0.364
-0.435,-0.368
-0.435,-0.38
-0.435,-0.396
-0.434,-0.412
-0.434,-0.412
-0.434,-0.44
-0.434,-0.428
-0.434,-0.42
-0.433,-0.444
-0.433,-0.416
-0.433,-0.436
-0.433,-0.432
-0.433,-0.44
-0.432,-0.44
-0.432,-0.456
-0.432,-0.476
-0.432,-0.472
-0.432,-0.484
-0.431,-0.5
-0.431,-0.492
-0.431,-0.512
-0.431,-0.524
-0.431,-0.544
-0.43,-0.532
-0.43,-0.532
-0.43,-0.536
-0.43,-0.548
-0.43,-0.536
-0.429,-0.54
-0.429,-0.548
-0.429,-0.552
-0.429,-0.488
-0.429,-0.528
-0.428,-0.5
-0.428,-0.516
-0.428,-0.528
-0.428,-0.5
-0.428,-0.5
-0.427,-0.508
-0.427,-0.476
-0.427,-0.476
-0.427,-0.46
-0.427,-0.444
-0.426,-0.456
-0.426,-0.408
-0.426,-0.412
-0.426,-0.392
-0.426,-0.396
-0.425,-0.412
-0.425,-0.388
-0.425,-0.388
-0.425,-0.384
-0.425,-0.392
-0.424,-0.38
-0.424,-0.396
-0.424,-0.412
-0.424,-0.384
-0.424,-0.412
-0.423,-0.42
-0.423,-0.42
-0.423,-0.416
-0.423,-0.424
-0.423,-0.432
-0.422,-0.44
-0.422,-0.44
-0.422,-0.46
-0.422,-0.464
-0.422,-0.452
-0.421,-0.464
-0.421,-0.464
-0.421,-0.468
-0.421,-0.448
-0.421,-0.472
-0.42,-0.436
-0.42,-0.444
-0.42,-0.456
-0.42,-0.456
-0.42,-0.46
-0.419,-0.46
-0.419,-0.436
-0.419,-0.44
-0.419,-0.424
-0.419,-0.408
-0.418,-0.4
-0.418,-0.4
-0.418,-0.384
-0.418,-0.384
-0.418,-0.376
-0.417,-0.352
-0.417,-0.348
-0.417,-0.32
-0.417,-0.316
-0.417,-0.28
-0.416,-0.284
-0.416,-0.264
-0.416,-0.264
-0.416,-0.256
-0.416,-0.28
-0.415,-0.252
-0.415,-0.244
-0.415,-0.272
-0.415,-0.268
-0.415,-0.264
-0.414,-0.272
-0.414,-0.276
-0.414,-0.268
-0.414,-0.296
-0.414,-0.268
-0.413,-0.288
-0.413,-0.308
-0.413,-0.288
-0.413,-0.268
-0.413,-0.26
-0.412,-0.244
-0.412,-0.24
-0.412,-0.22
-0.412,-0.212
-0.412,-0.22
-0.411,-0.208
-0.411,-0.216
-0.411,-0.216
-0.411,-0.204
-0.411,-0.18
-0.41,-0.2
-0.41,-0.188
-0.41,-0.2
-0.41,-0.184
-0.41,-0.164
-0.409,-0.184
-0.409,-0.176
-0.409,-0.156
-0.409,-0.144
-0.409,-0.132
-0.408,-0.156
-0.408,-0.132
-0.408,-0.112
-0.408,-0.116
-0.408,-0.128
-0.407,-0.128
-0.407,-0.136
-0.407,-0.132
-0.407,-0.16
-0.407,-0.156
-0.406,-0.176
-0.406,-0.18
-0.406,-0.172
-0.406,-0.156
-0.406,-0.192
-0.405,-0.196
-0.405,-0.184
-0.405,-0.204
-0.405,-0.196
-0.405,-0.188
-0.404,-0.196
-0.404,-0.188
-0.404,-0.188
-0.404,-0.18
-0.404,-0.172
-0.403,-0.164
-0.403,-0.14
-0.403,-0.128
-0.403,-0.144
-0.403,-0.136
-0.402,-0.12
-0.402,-0.132
-0.402,-0.148
-0.402,-0.144
-0.402,-0.14
-0.401,-0.132
-0.401,-0.144
-0.401,-0.168
-0.401,-0.164
-0.401,-0.156
-0.4,-0.14
-0.4,-0.136
-0.4,-0.124
-0.4,-0.096
-0.4,-0.112
-0.399,-0.104
-0.399,-0.088
-0.399,-0.088
-0.399,-0.06
-0.399,-0.04
-0.398,-0.044
-0.398,-0.024
-0.398,0.008
-0.398,0.004
-0.398,-0.008
-0.397,0.024
-0.397,0.044
-0.397,0.052
-0.397,0.056
-0.397,0.076
-0.396,0.068
-0.396,0.1
-0.396,0.076
-0.396,0.06
-0.396,0.06
-0.395,0.06
-0.395,0.044
-0.395,0.052
-0.395,0.032
-0.395,0.028
-0.394,-0.004
-0.394,0.008
-0.394,-0.008
-0.394,-0.012
-0.394,-0.004
-0.393,-0.024
-0.393,-0.04
-0.393,-0.06
-0.393,-0.072
-0.393,-0.096
-0.392,-0.112
-0.392,-0.096
-0.392,-0.136
-0.392,-0.156
-0.392,-0.14
-0.391,-0.152
-0.391,-0.16
-0.391,-0.172
-0.391,-0.16
-0.391,-0.196
-0.39,-0.184
-0.39,-0.192
-0.39,-0.192
-0.39,-0.196
-0.39,-0.2
-0.389,-0.204
-0.389,-0.192
-0.389,-0.204
-0.389,-0.196
-0.389,-0.164
-0.388,-0.168
-0.388,-0.192
-0.388,-0.2
-0.388,-0.204
-0.388,-0.2
-0.387,-0.208
-0.387,-0.22
-0.387,-0.2
-0.387,-0.192
-0.387,-0.172
-0.386,-0.188
-0.386,-0.192
-0.386,-0.164
-0.386,-0.176
-0.386,-0.176
-0.385,-0.172
-0.385,-0.168
-0.385,-0.172
-0.385,-0.164
-0.385,-0.18
-0.384,-0.172
-0.384,-0.148
-0.384,-0.148
-0.384,-0.144
-0.384,-0.108
-0.383,-0.116
-0.383,-0.096
-0.383,-0.108
-0.383,-0.12
-0.383,-0.112
-0.382,-0.092
-0.382,-0.116
-0.382,-0.132
-0.382,-0.12
-0.382,-0.108
-0.381,-0.12
-0.381,-0.108
-0.381,-0.144
-0.381,-0.12
-0.381,-0.108
-0.38,-0.116
-0.38,-0.096
-0.38,-0.1
-0.38,-0.096
-0.38,-0.092
-0.379,-0.092
-0.379,-0.08
-0.379,-0.064
-0.379,-0.048
-0.379,-0.076
-0.378,-0.072
-0.378,-0.044
-0.378,-0.052
-0.378,-0.056
-0.378,-0.04
-0.377,-0.076
-0.377,-0.04
-0.377,-0.032
-0.377,-0.04
-0.377,-0.04
-0.376,-0.08
-0.376,-0.064
-0.376,-0.064
-0.376,-0.044
-0.376,-0.06
-0.375,-0.068
-0.375,-0.04
-0.375,-0.06
-0.375,-0.028
-0.375,-0.06
-0.374,-0.06
-0.374,-0.044
-0.374,-0.08
-0.374,-0.112
-0.374,-0.1
-0.373,-0.12
-0.373,-0.112
-0.373,-0.108
-0.373,-0.108
-0.373,-0.124
-0.372,-0.128
-0.372,-0.14
-0.372,-0.148
-0.372,-0.116
-0.372,-0.14
-0.371,-0.124
-0.371,-0.104
-0.371,-0.132
-0.371,-0.128
-0.371,-0.132
-0.37,-0.132
-0.37,-0.124
-0.37,-0.116
-0.37,-0.088
-0.37,-0.068
-0.369,-0.068
-0.369,-0.06
-0.369,-0.06
-0.369,-0.06
-0.369,-0.044
-0.368,-0.032
-0.368,-0.016
-0.368,-0.02
-0.368,-0.012
-0.368,0.008
-0.367,-0.012
-0.367,0.012
-0.367,0.024
-0.367,0.024
-0.367,0.012
-0.366,0.036
-0.366,0.024
-0.366,0.004
-0.366,-0.004
-0.366,-0.008
-0.365,-0.02
-0.365,-0.012
-0.365,-0.044
-0.365,-0.068
-0.365,-0.072
-0.364,-0.068
-0.364,-0.108
-0.364,-0.104
-0.364,-0.116
-0.364,-0.104
-0.363,-0.128
-0.363,-0.156
-0.363,-0.152
-0.363,-0.156
-0.363,-0.128
-0.362,-0.128
-0.362,-0.156
-0.362,-0.16
-0.362,-0.164
-0.362,-0.148
-0.361,-0.16
-0.361,-0.172
-0.361,-0.172
-0.361,-0.184
-0.361,-0.164
-0.36,-0.168
-0.36,-0.172
-0.36,-0.164
-0.36,-0.156
-0.36,-0.156
-0.359,-0.148
-0.359,-0.148
-0.359,-0.144
-0.359,-0.12
-0.359,-0.12
-0.358,-0.112
-0.358,-0.108
-0.358,-0.072
-0.358,-0.072
-0.358,-0.064
-0.357,-0.052
-0.357,-0.056
-0.357,-0.036
-0.357,-0.044
-0.357,-0.04
-0.356,-0.044
-0.356,-0.012
-0.356,-0.016
-0.356,-0.012
-0.356,0.008
-0.355,-0.004
-0.355,0.028
-0.355,0.036
-0.355,0.052
-0.355,0.052
-0.354,0.048
-0.354,0.06
-0.354,0.092
-0.354,0.068
-0.354,0.072
-0.353,0.08
-0.353,0.088
-0.353,0.076
-0.353,0.068
-0.353,0.06
-0.352,0.052
-0.352,0.06
-0.352,0.048
-0.352,0.024
-0.352,0.036
-0.351,0.012
-0.351,0.02
-0.351,0
-0.351,-0.016
-0.351,-0.008
-0.35,-0.044
-0.35,-0.032
-0.35,-0.044
-0.35,-0.044
-0.35,-0.028
-0.349,-0.068
-0.349,-0.08
-0.349,-0.072
-0.349,-0.084
-0.349,-0.08
-0.348,-0.096
-0.348,-0.1
-0.348,-0.116
-0.348,-0.116
-0.348,-0.14
-0.347,-0.152
-0.347,-0.136
-0.347,-0.148
-0.347,-0.172
-0.347,-0.164
-0.346,-0.16
-0.346,-0.148
-0.346,-0.168
-0.346,-0.16
-0.346,-0.148
-0.345,-0.148
-0.345,-0.132
-0.345,-0.144
-0.345,-0.144
-0.345,-0.12
-0.344,-0.112
-0.344,-0.108
-0.344,-0.096
-0.344,-0.1
-0.344,-0.092
-0.343,-0.1
-0.343,-0.1
-0.343,-0.116
-0.343,-0.108
-0.343,-0.08
-0.342,-0.116
-0.342,-0.088
-0.342,-0.108
-0.342,-0.096
-0.342,-0.092
-0.341,-0.1
-0.341,-0.108
-0.341,-0.136
-0.341,-0.124
-0.341,-0.112
-0.34,-0.124
-0.34,-0.128
-0.34,-0.136
-0.34,-0.136
-0.34,-0.124
-0.339,-0.112
-0.339,-0.12
-0.339,-0.108
-0.339,-0.088
-0.339,-0.072
-0.338,-0.068
-0.338,-0.056
-0.338,-0.052
-0.338,-0.036
-0.338,-0.032
-0.337,-0.024
-0.337,-0.04
-0.337,-0.02
-0.337,-0.032
-0.337,-0.012
-0.336,-0.008
-0.336,0.012
-0.336,0.036
-0.336,0.048
-0.336,0.032
-0.335,0.068
-0.335,0.072
-0.335,0.068
-0.335,0.1
-0.335,0.092
-0.334,0.096
-0.334,0.096
-0.334,0.104
-0.334,0.088
-0.334,0.072
-0.333,0.088
-0.333,0.072
-0.333,0.072
-0.333,0.076
-0.333,0.076
-0.332,0.072
-0.332,0.06
-0.332,0.06
-0.332,0.044
-0.332,0.048
-0.331,0.04
-0.331,0.024
-0.331,0.036
-0.331,0.04
-0.331,0.024
-0.33,0.028
-0.33,0.04
-0.33,0.02
-0.33,0.02
-0.33,0.04
-0.329,0.02
-0.329,0.028
-0.329,0.036
-0.329,0.036
-0.329,0.028
-0.328,0.052
-0.328,0.036
-0.328,0.056
-0.328,0.036
-0.328,0.052
-0.327,0.032
-0.327,0.044
-0.327,0.044
-0.327,0.04
-0.327,0.044
-0.326,0.016
-0.326,0.024
-0.326,0.048
-0.326,0.048
-0.326,0.048
-0.325,0.048
-0.325,0.052
-0.325,0.044
-0.325,0.056
-0.325,0.052
-0.324,0.036
-0.324,0.048
-0.324,0.072
-0.324,0.052
-0.324,0.044
-0.323,0.04
-0.323,0.036
-0.323,0.02
-0.323,0.032
-0.323,0.048
-0.322,0.04
-0.322,0.068
-0.322,0.052
-0.322,0.056
-0.322,0.08
-0.321,0.06
-0.321,0.056
-0.321,0.052
-0.321,0.04
-0.321,0.028
-0.32,0.032
-0.32,0.016
-0.32,0.024
-0.32,-0.012
-0.32,-0.004
-0.319,-0.012
-0.319,-0.008
-0.319,-0.004
-0.319,0.008
-0.319,-0.004
-0.318,-0.012
-0.318,-0.004
-0.318,0.008
-0.318,0.008
-0.318,0.016
-0.317,0.016
-0.317,0.04
-0.317,0.04
-0.317,0.064
-0.317,0.056
-0.316,0.032
-0.316,0.036
-0.316,0.036
-0.316,0.02
-0.316,-0.008
-0.315,0.004
-0.315,-0.02
-0.315,-0.024
-0.315,-0.008
-0.315,-0.032
-0.314,-0.02
-0.314,0
-0.314,-0.008
-0.314,-0.012
-0.314,0
-0.313,-0.004
-0.313,-0.028
-0.313,-0.024
-0.313,-0.012
-0.313,-0.036
-0.312,-0.008
-0.312,-0.028
-0.312,-0.028
-0.312,0
-0.312,-0.04
-0.311,-0.044
-0.311,-0.052
-0.311,-0.04
-0.311,-0.048
-0.311,-0.044
-0.31,-0.028
-0.31,-0.032
-0.31,-0.048
-0.31,-0.028
-0.31,-0.032
-0.309,-0.032
-0.309,-0.02
-0.309,-0.004
-0.309,-0.016
-0.309,-0.04
-0.308,-0.044
-0.308,-0.092
-0.308,-0.088
-0.308,-0.076
-0.308,-0.08
-0.307,-0.096
-0.307,-0.092
-0.307,-0.092
-0.307,-0.088
-0.307,-0.1
-0.306,-0.092
-0.306,-0.088
-0.306,-0.08
-0.306,-0.08
-0.306,-0.088
-0.305,-0.072
-0.305,-0.076
-0.305,-0.08
-0.305,-0.064
-0.305,-0.084
-0.304,-0.068
-0.304,-0.056
-0.304,-0.068
-0.304,-0.084
-0.304,-0.056
-0.303,-0.08
-0.303,-0.072
-0.303,-0.072
-0.303,-0.084
-0.303,-0.092
-0.302,-0.068
-0.302,-0.088
-0.302,-0.104
-0.302,-0.104
-0.302,-0.08
-0.301,-0.1
-0.301,-0.076
-0.301,-0.084
-0.301,-0.092
-0.301,-0.052
-0.3,-0.04
-0.3,-0.032
-0.3,-0.016
-0.3,-0.016
-0.3,-0.008
-0.299,-0.008
-0.299,-0.028
-0.299,-0.008
-0.299,0
-0.299,0.016
-0.298,0.028
-0.298,0.056
-0.298,0.08
-0.298,0.092
-0.298,0.108
-0.297,0.116
-0.297,0.132
-0.297,0.144
-0.297,0.164
-0.297,0.164
-0.296,0.172
-0.296,0.184
-0.296,0.168
-0.296,0.208
-0.296,0.184
-0.295,0.212
-0.295,0.192
-0.295,0.216
-0.295,0.176
-0.295,0.176
-0.294,0.188
-0.294,0.192
-0.294,0.18
-0.294,0.184
-0.294,0.196
-0.293,0.18
-0.293,0.164
-0.293,0.188
-0.293,0.168
-0.293,0.18
-0.292,0.168
-0.292,0.148
-0.292,0.128
-0.292,0.136
-0.292,0.108
-0.291,0.104
-0.291,0.068
-0.291,0.06
-0.291,0.048
-0.291,0.056
-0.29,0.04
-0.29,0.008
-0.29,0.004
-0.29,0.02
-0.29,0.02
-0.289,0.028
-0.289,0.032
-0.289,0.024
-0.289,0.036
-0.289,0.028
-0.288,-0.004
-0.288,-0.024
-0.288,-0.02
-0.288,-0.032
-0.288,-0.032
-0.287,-0.024
-0.287,-0.028
-0.287,-0.04
-0.287,-0.028
-0.287,-0.032
-0.286,-0.012
-0.286,0.008
-0.286,0
-0.286,0.016
-0.286,0.024
-0.285,0.004
-0.285,0.004
-0.285,-0.008
-0.285,-0.024
-0.285,-0.004
-0.284,-0.008
-0.284,-0.008
-0.284,-0.028
-0.284,-0.02
-0.284,-0.044
-0.283,-0.024
-0.283,-0.016
-0.283,-0.02
-0.283,-0.024
-0.283,-0.024
-0.282,-0.024
-0.282,-0.016
-0.282,-0.024
-0.282,-0.004
-0.282,0.012
-0.281,0.032
-0.281,0.048
-0.281,0.052
-0.281,0.056
-0.281,0.068
-0.28,0.064
-0.28,0.076
-0.28,0.072
-0.28,0.088
-0.28,0.084
-0.279,0.072
-0.279,0.068
-0.279,0.088
-0.279,0.088
-0.279,0.076
-0.278,0.076
-0.278,0.08
-0.278,0.096
-0.278,0.052
-0.278,0.052
-0.277,0.028
-0.277,0.004
-0.277,0.008
-0.277,0.008
-0.277,0
-0.276,0.004
-0.276,0.008
-0.276,0.024
-0.276,0.012
-0.276,0.016
-0.275,0.016
-0.275,0.032
-0.275,0.052
-0.275,0.02
-0.275,0.032
-0.274,0.028
-0.274,0.024
-0.274,0.036
-0.274,0.004
-0.274,0.016
-0.273,0.024
-0.273,0.032
-0.273,0.02
-0.273,0.008
-0.273,0.036
-0.272,0.044
-0.272,0.012
-0.272,0.012
-0.272,0.024
-0.272,0.024
-0.271,0.016
-0.271,0.008
-0.271,-0.012
-0.271,0.02
-0.271,0.008
-0.27,0.02
-0.27,0.02
-0.27,0.068
-0.27,0.052
-0.27,0.088
-0.269,0.08
-0.269,0.084
-0.269,0.108
-0.269,0.108
-0.269,0.108
-0.268,0.104
-0.268,0.088
-0.268,0.072
-0.268,0.084
-0.268,0.06
-0.267,0.056
-0.267,0.068
-0.267,0.04
-0.267,0.036
-0.267,0.02
-0.266,0.012
-0.266,0.028
-0.266,0.004
-0.266,0.004
-0.266,-0.012
-0.265,0.016
-0.265,0.032
-0.265,-0.004
-0.265,0.028
-0.265,0.04
-0.264,0.04
-0.264,0.028
-0.264,0.044
-0.264,0.016
-0.264,0.052
-0.263,0.052
-0.263,0.056
-0.263,0.064
-0.263,0.076
-0.263,0.104
-0.262,0.104
-0.262,0.072
-0.262,0.092
-0.262,0.1
-0.262,0.112
-0.261,0.112
-0.261,0.112
-0.261,0.128
-0.261,0.136
-0.261,0.132
-0.26,0.12
-0.26,0.14
-0.26,0.136
-0.26,0.14
-0.26,0.14
-0.259,0.116
-0.259,0.132
-0.259,0.128
-0.259,0.128
-0.259,0.104
-0.258,0.096
-0.258,0.104
-0.258,0.12
-0.258,0.124
-0.258,0.124
-0.257,0.116
-0.257,0.12
-0.257,0.116
-0.257,0.132
-0.257,0.12
-0.256,0.12
-0.256,0.108
-0.256,0.104
-0.256,0.108
-0.256,0.096
-0.255,0.108
-0.255,0.14
-0.255,0.144
-0.255,0.128
-0.255,0.136
-0.254,0.128
-0.254,0.136
-0.254,0.148
-0.254,0.132
-0.254,0.132
-0.253,0.144
-0.253,0.112
-0.253,0.148
-0.253,0.144
-0.253,0.144
-0.252,0.136
-0.252,0.124
-0.252,0.1
-0.252,0.104
-0.252,0.08
-0.251,0.072
-0.251,0.06
-0.251,0.064
-0.251,0.06
-0.251,0.048
-0.25,0.056
-0.25,0.04
-0.25,0.04
-0.25,0.036
-0.25,0.028
-0.249,0.032
-0.249,0.044
-0.249,0.028
-0.249,0.012
-0.249,0.028
-0.248,0.036
-0.248,-0.008
-0.248,0.012
-0.248,0.032
-0.248,0.028
-0.247,0.008
-0.247,0.008
-0.247,0.004
-0.247,-0.02
-0.247,-0.016
-0.246,-0.024
-0.246,-0.008
-0.246,-0.008
-0.246,-0.02
-0.246,-0.008
-0.245,0.004
-0.245,-0.004
-0.245,-0.008
-0.245,-0.024
-0.245,-0.032
-0.244,-0.024
-0.244,-0.06
-0.244,-0.056
-0.244,-0.08
-0.244,-0.068
-0.243,-0.036
-0.243,-0.068
-0.243,-0.084
-0.243,-0.052
-0.243,-0.056
-0.242,-0.048
-0.242,-0.036
-0.242,-0.04
-0.242,-0.036
-0.242,0
-0.241,-0.024
-0.241,-0.024
-0.241,0.02
-0.241,-0.004
-0.241,0.032
-0.24,0.012
-0.24,0.004
-0.24,-0.02
-0.24,0
-0.24,0.004
-0.239,-0.028
-0.239,-0.028
-0.239,-0.012
-0.239,-0.016
-0.239,0.004
-0.238,0.008
-0.238,-0.004
-0.238,-0.028
-0.238,0.004
-0.238,-0.004
-0.237,0
-0.237,0.028
-0.237,0.024
-0.237,0.02
-0.237,0.044
-0.236,0.06
-0.236,0.052
-0.236,0.036
-0.236,0.024
-0.236,0.032
-0.235,0.012
-0.235,0.016
-0.235,0.004
-0.235,0.012
-0.235,0.008
-0.234,0
-0.234,0
-0.234,-0.004
-0.234,0
-0.234,0.028
-0.233,0.024
-0.233,0.04
-0.233,0.036
-0.233,0.056
-0.233,0.032
-0.232,0.036
-0.232,0.036
-0.232,0.036
-0.232,0.044
-0.232,0.02
-0.231,0.032
-0.231,0.044
-0.231,0.036
-0.231,0.032
-0.231,0.036
-0.23,0.064
-0.23,0.048
-0.23,0.044
-0.23,0.06
-0.23,0.056
-0.229,0.036
-0.229,0.06
-0.229,0.048
-0.229,0.08
-0.229,0.072
-0.228,0.056
-0.228,0.048
-0.228,0.068
-0.228,0.032
-0.228,0.02
-0.227,0.016
-0.227,-0.016
-0.227,-0.04
-0.227,-0.048
-0.227,-0.068
-0.226,-0.108
-0.226,-0.072
-0.226,-0.088
-0.226,-0.084
-0.226,-0.092
-0.225,-0.076
-0.225,-0.064
-0.225,-0.072
-0.225,-0.056
-0.225,-0.072
-0.224,-0.048
-0.224,-0.056
-0.224,-0.028
-0.224,-0.032
-0.224,-0.048
-0.223,-0.06
-0.223,-0.048
-0.223,-0.04
-0.223,-0.068
-0.223,-0.072
-0.222,-0.072
-0.222,-0.064
-0.222,-0.068
-0.222,-0.064
-0.222,-0.08
-0.221,-0.076
-0.221,-0.096
-0.221,-0.092
-0.221,-0.084
-0.221,-0.076
-0.22,-0.064
-0.22,-0.056
-0.22,-0.048
-0.22,-0.02
-0.22,-0.028
-0.219,-0.012
-0.219,-0.012
-0.219,0.02
-0.219,0.02
-0.219,0.032
-0.218,0.036
-0.218,0.052
-0.218,0.056
-0.218,0.024
-0.218,0.02
-0.217,0.028
-0.217,0.052
-0.217,0.024
-0.217,0.036
-0.217,0.02
-0.216,0.008
-0.216,-0.004
-0.216,0.004
-0.216,-0.008
-0.216,-0.016
-0.215,0.02
-0.215,0
-0.215,-0.016
-0.215,-0.028
-0.215,-0.048
-0.214,-0.052
-0.214,-0.064
-0.214,-0.088
-0.214,-0.096
-0.214,-0.092
-0.213,-0.112
-0.213,-0.088
-0.213,-0.104
-0.213,-0.108
-0.213,-0.104
-0.212,-0.116
-0.212,-0.124
-0.212,-0.124
-0.212,-0.14
-0.212,-0.128
-0.211,-0.112
-0.211,-0.104
-0.211,-0.108
-0.211,-0.1
-0.211,-0.084
-0.21,-0.104
-0.21,-0.104
-0.21,-0.1
-0.21,-0.096
-0.21,-0.104
-0.209,-0.108
-0.209,-0.104
-0.209,-0.112
-0.209,-0.112
-0.209,-0.116
-0.208,-0.12
-0.208,-0.124
-0.208,-0.108
-0.208,-0.144
-0.208,-0.12
-0.207,-0.128
-0.207,-0.148
-0.207,-0.136
-0.207,-0.136
-0.207,-0.132
-0.206,-0.124
-0.206,-0.132
-0.206,-0.108
-0.206,-0.12
-0.206,-0.12
-0.205,-0.12
-0.205,-0.108
-0.205,-0.116
-0.205,-0.116
-0.205,-0.128
-0.204,-0.088
-0.204,-0.076
-0.204,-0.084
-0.204,-0.1
-0.204,-0.084
-0.203,-0.084
-0.203,-0.064
-0.203,-0.08
-0.203,-0.088
-0.203,-0.068
-0.202,-0.064
-0.202,-0.076
-0.202,-0.064
-0.202,-0.076
-0.202,-0.064
-0.201,-0.084
-0.201,-0.084
-0.201,-0.1
-0.201,-0.092
-0.201,-0.092
-0.2,-0.096
-0.2,-0.084
-0.2,-0.084
-0.2,-0.072
-0.2,-0.064
-0.199,-0.06
-0.199,-0.06
-0.199,-0.028
-0.199,-0.032
-0.199,-0.02
-0.198,-0.012
-0.198,-0.028
-0.198,-0.016
-0.198,-0.044
-0.198,-0.048
-0.197,-0.052
-0.197,-0.08
-0.197,-0.084
-0.197,-0.128
-0.197,-0.14
-0.196,-0.14
-0.196,-0.136
-0.196,-0.14
-0.196,-0.132
-0.196,-0.136
-0.195,-0.1
-0.195,-0.132
-0.195,-0.112
-0.195,-0.116
-0.195,-0.104
-0.194,-0.124
-0.194,-0.12
-0.194,-0.12
-0.194,-0.132
-0.194,-0.14
-0.193,-0.136
-0.193,-0.132
-0.193,-0.152
-0.193,-0.156
-0.193,-0.16
-0.192,-0.168
-0.192,-0.172
-0.192,-0.192
-0.192,-0.192
-0.192,-0.204
-0.191,-0.184
-0.191,-0.204
-0.191,-0.204
-0.191,-0.208
-0.191,-0.208
-0.19,-0.22
-0.19,-0.224
-0.19,-0.228
-0.19,-0.24
-0.19,-0.24
-0.189,-0.256
-0.189,-0.26
-0.189,-0.268
-0.189,-0.28
-0.189,-0.288
-0.188,-0.288
-0.188,-0.3
-0.188,-0.312
-0.188,-0.292
-0.188,-0.292
-0.187,-0.304
-0.187,-0.284
-0.187,-0.284
-0.187,-0.256
-0.187,-0.256
-0.186,-0.228
-0.186,-0.212
-0.186,-0.188
-0.186,-0.208
-0.186,-0.184
-0.185,-0.172
-0.185,-0.172
-0.185,-0.16
-0.185,-0.176
-0.185,-0.144
-0.184,-0.144
-0.184,-0.132
-0.184,-0.136
-0.184,-0.124
-0.184,-0.104
-0.183,-0.08
-0.183,-0.076
-0.183,-0.056
-0.183,-0.056
-0.183,-0.02
-0.182,-0.024
-0.182,-0.008
-0.182,-0.028
-0.182,-0.036
-0.182,-0.024
-0.181,-0.032
-0.181,-0.06
-0.181,-0.032
-0.181,-0.06
-0.181,-0.06
-0.18,-0.104
-0.18,-0.112
-0.18,-0.144
-0.18,-0.136
-0.18,-0.156
-0.179,-0.184
-0.179,-0.184
-0.179,-0.192
-0.179,-0.196
-0.179,-0.184
-0.178,-0.192
-0.178,-0.204
-0.178,-0.2
-0.178,-0.18
-0.178,-0.192
-0.177,-0.16
-0.177,-0.168
-0.177,-0.168
-0.177,-0.172
-0.177,-0.172
-0.176,-0.164
-0.176,-0.164
-0.176,-0.16
-0.176,-0.168
-0.176,-0.184
-0.175,-0.192
-0.175,-0.172
-0.175,-0.2
-0.175,-0.18
-0.175,-0.184
-0.174,-0.184
-0.174,-0.208
-0.174,-0.18
-0.174,-0.216
-0.174,-0.216
-0.173,-0.244
-0.173,-0.248
-0.173,-0.252
-0.173,-0.268
-0.173,-0.24
-0.172,-0.256
-0.172,-0.268
-0.172,-0.264
-0.172,-0.296
-0.172,-0.284
-0.171,-0.272
-0.171,-0.264
-0.171,-0.28
-0.171,-0.272
-0.171,-0.248
-0.17,-0.244
-0.17,-0.248
-0.17,-0.216
-0.17,-0.204
-0.17,-0.188
-0.169,-0.176
-0.169,-0.152
-0.169,-0.14
-0.169,-0.128
-0.169,-0.124
-0.168,-0.112
-0.168,-0.1
-0.168,-0.1
-0.168,-0.096
-0.168,-0.112
-0.167,-0.104
-0.167,-0.104
-0.167,-0.104
-0.167,-0.1
-0.167,-0.108
-0.166,-0.096
-0.166,-0.108
-0.166,-0.116
-0.166,-0.112
-0.166,-0.104
-0.165,-0.104
-0.165,-0.116
-0.165,-0.1
-0.165,-0.116
-0.165,-0.12
-0.164,-0.112
-0.164,-0.104
-0.164,-0.1
-0.164,-0.108
-0.164,-0.06
-0.163,-0.08
-0.163,-0.076
-0.163,-0.068
-0.163,-0.064
-0.163,-0.044
-0.162,-0.028
-0.162,-0.044
-0.162,-0.04
-0.162,-0.024
-0.162,-0.028
-0.161,-0.04
-0.161,-0.024
-0.161,-0.02
-0.161,-0.024
-0.161,-0.008
-0.16,0.016
-0.16,-0.008
-0.16,-0.02
-0.16,-0.008
-0.16,-0.008
-0.159,-0.032
-0.159,0
-0.159,-0.024
-0.159,-0.012
-0.159,-0.008
-0.158,-0.02
-0.158,-0.04
-0.158,-0.004
-0.158,-0.016
-0.158,-0.024
-0.157,-0.016
-0.157,-0.004
-0.157,0.008
-0.157,-0.012
-0.157,-0.016
-0.156,-0.032
-0.156,-0.032
-0.156,-0.028
-0.156,-0.04
-0.156,-0.024
-0.155,-0.028
-0.155,-0.04
-0.155,-0.072
-0.155,-0.08
-0.155,-0.076
-0.154,-0.076
-0.154,-0.072
-0.154,-0.076
-0.154,-0.08
-0.154,-0.076
-0.153,-0.076
-0.153,-0.076
-0.153,-0.08
-0.153,-0.076
-0.153,-0.084
-0.152,-0.084
-0.152,-0.096
-0.152,-0.124
-0.152,-0.116
-0.152,-0.096
-0.151,-0.108
-0.151,-0.124
-0.151,-0.128
-0.151,-0.108
-0.151,-0.112
-0.15,-0.108
-0.15,-0.132
-0.15,-0.108
-0.15,-0.108
-0.15,-0.124
-0.149,-0.12
-0.149,-0.132
-0.149,-0.132
-0.149,-0.128
-0.149,-0.12
-0.148,-0.124
-0.148,-0.136
-0.148,-0.14
-0.148,-0.148
-0.148,-0.144
-0.147,-0.156
-0.147,-0.148
-0.147,-0.16
-0.147,-0.152
-0.147,-0.16
-0.146,-0.152
-0.146,-0.12
-0.146,-0.12
-0.146,-0.1
-0.146,-0.068
-0.145,-0.06
-0.145,-0.052
-0.145,-0.028
-0.145,-0.024
-0.145,-0.008
-0.144,0.016
-0.144,0.044
-0.144,0.04
-0.144,0.044
-0.144,0.068
-0.143,0.064
-0.143,0.064
-0.143,0.084
-0.143,0.068
-0.143,0.092
-0.142,0.104
-0.142,0.108
-0.142,0.108
-0.142,0.124
-0.142,0.112
-0.141,0.104
-0.141,0.104
-0.141,0.124
-0.141,0.116
-0.141,0.112
-0.14,0.116
-0.14,0.1
-0.14,0.088
-0.14,0.096
-0.14,0.06
-0.139,0.056
-0.139,0.04
-0.139,0.02
-0.139,-0.004
-0.139,-0.004
-0.138,-0.04
-0.138,-0.06
-0.138,-0.052
-0.138,-0.072
-0.138,-0.088
-0.137,-0.088
-0.137,-0.088
-0.137,-0.088
-0.137,-0.096
-0.137,-0.124
-0.136,-0.12
-0.136,-0.12
-0.136,-0.112
-0.136,-0.164
-0.136,-0.152
-0.135,-0.156
-0.135,-0.148
-0.135,-0.132
-0.135,-0.152
-0.135,-0.14
-0.134,-0.116
-0.134,-0.12
-0.134,-0.116
-0.134,-0.108
-0.134,-0.096
-0.133,-0.076
-0.133,-0.072
-0.133,-0.064
-0.133,-0.056
-0.133,-0.06
-0.132,-0.036
-0.132,-0.048
-0.132,-0.016
-0.132,-0.02
-0.132,-0.008
-0.131,-0.008
-0.131,-0.02
-0.131,-0.02
-0.131,-0.012
-0.131,-0.02
-0.13,-0.016
-0.13,-0.032
-0.13,-0.028
-0.13,-0.032
-0.13,-0.032
-0.129,-0.044
-0.129,-0.072
-0.129,-0.088
-0.129,-0.096
-0.129,-0.116
-0.128,-0.124
-0.128,-0.128
-0.128,-0.132
-0.128,-0.16
-0.128,-0.156
-0.127,-0.148
-0.127,-0.144
-0.127,-0.148
-0.127,-0.152
-0.127,-0.156
-0.126,-0.148
-0.126,-0.12
-0.126,-0.136
-0.126,-0.124
-0.126,-0.136
-0.125,-0.12
-0.125,-0.1
-0.125,-0.088
-0.125,-0.096
-0.125,-0.088
-0.124,-0.06
-0.124,-0.06
-0.124,-0.068
-0.124,-0.048
-0.124,-0.072
-0.123,-0.08
-0.123,-0.08
-0.123,-0.096
-0.123,-0.072
-0.123,-0.064
-0.122,-0.056
-0.122,-0.076
-0.122,-0.06
-0.122,-0.084
-0.122,-0.088
-0.121,-0.08
-0.121,-0.096
-0.121,-0.128
-0.121,-0.116
-0.121,-0.132
-0.12,-0.14
-0.12,-0.14
-0.12,-0.148
-0.12,-0.136
-0.12,-0.148
-0.119,-0.14
-0.119,-0.128
-0.119,-0.12
-0.119,-0.104
-0.119,-0.12
-0.118,-0.092
-0.118,-0.072
-0.118,-0.036
-0.118,-0.028
-0.118,-0.04
-0.117,-0.016
-0.117,-0.012
-0.117,0
-0.117,0.004
-0.117,0.004
-0.116,0.028
-0.116,0.036
-0.116,0.032
-0.116,0.032
-0.116,0.024
-0.115,0.04
-0.115,0.068
-0.115,0.06
-0.115,0.056
-0.115,0.088
-0.114,0.08
-0.114,0.076
-0.114,0.084
-0.114,0.08
-0.114,0.108
-0.113,0.112
-0.113,0.108
-0.113,0.088
-0.113,0.1
-0.113,0.088
-0.112,0.06
-0.112,0.06
-0.112,0.044
-0.112,0.02
-0.112,0.012
-0.111,-0.032
-0.111,-0.036
-0.111,-0.048
-0.111,-0.064
-0.111,-0.064
-0.11,-0.068
-0.11,-0.056
-0.11,-0.056
-0.11,-0.056
-0.11,-0.044
-0.109,-0.04
-0.109,-0.048
-0.109,-0.024
-0.109,0
-0.109,-0.004
-0.108,-0.004
-0.108,0.004
-0.108,0
-0.108,0.02
-0.108,0.008
-0.107,0.004
-0.107,0.008
-0.107,0.016
-0.107,-0.02
-0.107,-0.008
-0.106,-0.004
-0.106,0.008
-0.106,0.028
-0.106,0.012
-0.106,0.008
-0.105,0
-0.105,0.016
-0.105,-0.004
-0.105,-0.024
-0.105,-0.024
-0.104,-0.024
-0.104,-0.044
-0.104,-0.028
-0.104,-0.044
-0.104,-0.048
-0.103,-0.04
-0.103,-0.052
-0.103,-0.048
-0.103,-0.028
-0.103,-0.04
-0.102,-0.044
-0.102,-0.04
-0.102,-0.064
-0.102,-0.064
-0.102,-0.056
-0.101,-0.06
-0.101,-0.06
-0.101,-0.056
-0.101,-0.064
-0.101,-0.076
-0.1,-0.048
-0.1,-0.052
-0.1,-0.048
-0.0998,-0.048
-0.0996,-0.068
-0.0994,-0.064
-0.0992,-0.04
-0.099,-0.064
-0.0988,-0.04
-0.0986,-0.048
-0.0984,-0.028
-0.0982,-0.016
-0.098,-0.004
-0.0978,-0.012
-0.0976,-0.028
-0.0974,0
-0.0972,0.012
-0.097,-0.004
-0.0968,0.012
-0.0966,0.004
-0.0964,0.02
-0.0962,0.024
-0.096,0.02
-0.0958,0.008
-0.0956,0.016
-0.0954,0.028
-0.0952,0.008
-0.095,0.028
-0.0948,0.012
-0.0946,0.008
-0.0944,-0.04
-0.0942,-0.04
-0.094,-0.072
-0.0938,-0.08
-0.0936,-0.088
-0.0934,-0.104
-0.0932,-0.12
-0.093,-0.128
-0.0928,-0.14
-0.0926,-0.156
-0.0924,-0.152
-0.0922,-0.156
-0.092,-0.172
-0.0918,-0.18
-0.0916,-0.16
-0.0914,-0.152
-0.0912,-0.16
-0.091,-0.152
-0.0908,-0.156
-0.0906,-0.16
-0.0904,-0.156
-0.0902,-0.168
-0.09,-0.172
-0.0898,-0.164
-0.0896,-0.152
-0.0894,-0.156
-0.0892,-0.156
-0.089,-0.128
-0.0888,-0.132
-0.0886,-0.132
-0.0884,-0.104
-0.0882,-0.108
-0.088,-0.088
-0.0878,-0.08
-0.0876,-0.076
-0.0874,-0.072
-0.0872,-0.044
-0.087,-0.052
-0.0868,-0.084
-0.0866,-0.064
-0.0864,-0.088
-0.0862,-0.064
-0.086,-0.1
-0.0858,-0.1
-0.0856,-0.108
-0.0854,-0.116
-0.0852,-0.12
-0.085,-0.116
-0.0848,-0.112
-0.0846,-0.092
-0.0844,-0.092
-0.0842,-0.072
-0.084,-0.076
-0.0838,-0.072
-0.0836,-0.068
-0.0834,-0.04
-0.0832,-0.016
-0.083,-0.016
-0.0828,0
-0.0826,0.04
-0.0824,0.068
-0.0822,0.056
-0.082,0.056
-0.0818,0.084
-0.0816,0.104
-0.0814,0.084
-0.0812,0.096
-0.081,0.108
-0.0808,0.1
-0.0806,0.136
-0.0804,0.14
-0.0802,0.132
-0.08,0.144
-0.0798,0.176
-0.0796,0.172
-0.0794,0.176
-0.0792,0.188
-0.079,0.192
-0.0788,0.164
-0.0786,0.188
-0.0784,0.176
-0.0782,0.152
-0.078,0.152
-0.0778,0.12
-0.0776,0.088
-0.0774,0.096
-0.0772,0.088
-0.077,0.076
-0.0768,0.052
-0.0766,0.052
-0.0764,0.044
-0.0762,0.056
-0.076,0.04
-0.0758,0.036
-0.0756,0.028
-0.0754,0.016
-0.0752,0.028
-0.075,0.024
-0.0748,0.02
-0.0746,0.012
-0.0744,0.012
-0.0742,0.012
-0.074,0
-0.0738,-0.008
-0.0736,0
-0.0734,0.004
-0.0732,-0.012
-0.073,-0.004
-0.0728,-0.012
-0.0726,-0.004
-0.0724,0.024
-0.0722,0.012
-0.072,0.008
-0.0718,-0.004
-0.0716,-0.016
-0.0714,-0.008
-0.0712,0.004
-0.071,-0.008
-0.0708,-0.012
-0.0706,-0.016
-0.0704,-0.044
-0.0702,-0.044
-0.07,-0.052
-0.0698,-0.072
-0.0696,-0.072
-0.0694,-0.096
-0.0692,-0.112
-0.069,-0.12
-0.0688,-0.144
-0.0686,-0.16
-0.0684,-0.172
-0.0682,-0.164
-0.068,-0.148
-0.0678,-0.168
-0.0676,-0.14
-0.0674,-0.12
-0.0672,-0.116
-0.067,-0.112
-0.0668,-0.084
-0.0666,-0.088
-0.0664,-0.072
-0.0662,-0.048
-0.066,-0.072
-0.0658,-0.064
-0.0656,-0.06
-0.0654,-0.052
-0.0652,-0.048
-0.065,-0.024
-0.0648,-0.012
-0.0646,-0.008
-0.0644,0.02
-0.0642,0.016
-0.064,0.04
-0.0638,0.04
-0.0636,0.052
-0.0634,0.096
-0.0632,0.072
-0.063,0.076
-0.0628,0.076
-0.0626,0.104
-0.0624,0.092
-0.0622,0.084
-0.062,0.092
-0.0618,0.12
-0.0616,0.112
-0.0614,0.108
-0.0612,0.1
-0.061,0.064
-0.0608,0.084
-0.0606,0.064
-0.0604,0.056
-0.0602,0.056
-0.06,0.048
-0.0598,0.024
-0.0596,0.016
-0.0594,0.016
-0.0592,0
-0.059,0.012
-0.0588,0.012
-0.0586,-0.032
-0.0584,0
-0.0582,0.004
-0.058,0.008
-0.0578,0
-0.0576,0.02
-0.0574,0.008
-0.0572,0.032
-0.057,0.06
-0.0568,0.032
-0.0566,0.036
-0.0564,0.028
-0.0562,0.012
-0.056,0.044
-0.0558,0.012
-0.0556,0.04
-0.0554,0.056
-0.0552,0.044
-0.055,0.04
-0.0548,0.028
-0.0546,0.032
-0.0544,0.048
-0.0542,0.04
-0.054,0.02
-0.0538,0.028
-0.0536,0.02
-0.0534,0.012
-0.0532,0.036
-0.053,0.016
-0.0528,0.056
-0.0526,0.076
-0.0524,0.056
-0.0522,0.048
-0.052,0.072
-0.0518,0.056
-0.0516,0.06
-0.0514,0.052
-0.0512,0.044
-0.051,0.048
-0.0508,0.064
-0.0506,0.048
-0.0504,0.028
-0.0502,0.036
-0.05,0.04
-0.0498,0.028
-0.0496,0.04
-0.0494,0.028
-0.0492,-0.004
-0.049,0.008
-0.0488,-0.016
-0.0486,-0.016
-0.0484,-0.024
-0.0482,-0.016
-0.048,-0.012
-0.0478,0.016
-0.0476,0
-0.0474,0
-0.0472,-0.008
-0.047,0.016
-0.0468,0.004
-0.0466,-0.004
-0.0464,0.004
-0.0462,-0.012
-0.046,0.004
-0.0458,-0.036
-0.0456,0
-0.0454,0
-0.0452,-0.012
-0.045,0.008
-0.0448,0.028
-0.0446,0.028
-0.0444,0.036
-0.0442,0.02
-0.044,0.056
-0.0438,0.076
-0.0436,0.056
-0.0434,0.068
-0.0432,0.048
-0.043,0.04
-0.0428,0.032
-0.0426,0.032
-0.0424,0.012
-0.0422,0.02
-0.042,0.008
-0.0418,0.016
-0.0416,0
-0.0414,0.012
-0.0412,0.024
-0.041,0.016
-0.0408,0.02
-0.0406,0.016
-0.0404,0.012
-0.0402,0
-0.04,0.004
-0.0398,-0.04
-0.0396,-0.024
-0.0394,-0.056
-0.0392,-0.076
-0.039,-0.06
-0.0388,-0.056
-0.0386,-0.08
-0.0384,-0.056
-0.0382,-0.04
-0.038,-0.052
-0.0378,-0.028
-0.0376,-0.028
-0.0374,-0.012
-0.0372,0.004
-0.037,0.024
-0.0368,0.028
-0.0366,0.02
-0.0364,0.012
-0.0362,0.016
-0.036,-0.004
-0.0358,-0.02
-0.0356,0.008
-0.0354,0.016
-0.0352,-0.016
-0.035,-0.02
-0.0348,-0.028
-0.0346,-0.028
-0.0344,-0.028
-0.0342,-0.04
-0.034,-0.016
-0.0338,0.004
-0.0336,0.004
-0.0334,0.02
-0.0332,0.012
-0.033,0.012
-0.0328,0.024
-0.0326,0.004
-0.0324,-0.012
-0.0322,0.008
-0.032,-0.012
-0.0318,-0.06
-0.0316,-0.044
-0.0314,-0.072
-0.0312,-0.1
-0.031,-0.088
-0.0308,-0.104
-0.0306,-0.092
-0.0304,-0.104
-0.0302,-0.084
-0.03,-0.1
-0.0298,-0.068
-0.0296,-0.08
-0.0294,-0.064
-0.0292,-0.06
-0.029,-0.04
-0.0288,-0.064
-0.0286,-0.064
-0.0284,-0.072
-0.0282,-0.036
-0.028,-0.04
-0.0278,-0.032
-0.0276,-0.04
-0.0274,-0.004
-0.0272,-0.024
-0.027,-0.036
-0.0268,-0.028
-0.0266,-0.02
-0.0264,-0.004
-0.0262,-0.008
-0.026,0.012
-0.0258,0.012
-0.0256,0.012
-0.0254,0.024
-0.0252,0.028
-0.025,0.024
-0.0248,0.044
-0.0246,0.024
-0.0244,0.036
-0.0242,0.032
-0.024,0.008
-0.0238,0.004
-0.0236,-0.004
-0.0234,-0.012
-0.0232,-0.036
-0.023,-0.028
-0.0228,-0.032
-0.0226,-0.02
-0.0224,-0.02
-0.0222,-0.004
-0.022,-0.028
-0.0218,-0.008
-0.0216,-0.012
-0.0214,-0.028
-0.0212,-0.032
-0.021,-0.048
-0.0208,-0.048
-0.0206,-0.068
-0.0204,-0.072
-0.0202,-0.056
-0.02,-0.056
-0.0198,-0.04
-0.0196,-0.052
-0.0194,-0.04
-0.0192,0.008
-0.019,0
-0.0188,0.032
-0.0186,0.056
-0.0184,0.096
-0.0182,0.096
-0.018,0.116
-0.0178,0.12
-0.0176,0.124
-0.0174,0.108
-0.0172,0.128
-0.017,0.1
-0.0168,0.124
-0.0166,0.112
-0.0164,0.108
-0.0162,0.116
-0.016,0.108
-0.0158,0.128
-0.0156,0.132
-0.0154,0.14
-0.0152,0.14
-0.015,0.156
-0.0148,0.152
-0.0146,0.124
-0.0144,0.136
-0.0142,0.132
-0.014,0.12
-0.0138,0.108
-0.0136,0.124
-0.0134,0.12
-0.0132,0.116
-0.013,0.1
-0.0128,0.088
-0.0126,0.088
-0.0124,0.088
-0.0122,0.076
-0.012,0.064
-0.0118,0.048
-0.0116,0.06
-0.0114,0.028
-0.0112,0.024
-0.011,0.02
-0.0108,0.024
-0.0106,0.012
-0.0104,-0.008
-0.0102,-0.008
-0.01,-0.012
-0.0098,0.008
-0.0096,-0.044
-0.0094,-0.04
-0.0092,-0.016
-0.009,-0.032
-0.0088,-0.024
-0.0086,-0.02
-0.0084,-0.008
-0.0082,-0.008
-0.008,0.008
-0.0078,-0.008
-0.0076,-0.012
-0.0074,-0.028
-0.0072,0.004
-0.007,0.004
-0.0068,-0.004
-0.0066,0
-0.0064,-0.004
-0.0062,0.004
-0.006,0.008
-0.0058,-0.032
-0.0056,-0.036
-0.0054,-0.028
-0.0052,-0.028
-0.005,-0.016
-0.0048,-0.024
-0.0046,-0.044
-0.0044,-0.024
-0.0042,-0.028
-0.004,-0.04
-0.0038,-0.04
-0.0036,-0.024
-0.0034,-0.032
-0.0032,-0.032
-0.003,-0.044
-0.0028,-0.052
-0.0026,-0.048
-0.0024,-0.04
-0.0022,-0.068
-0.002,-0.052
-0.0018,-0.056
-0.0016,-0.056
-0.0014,-0.064
-0.0012,-0.056
-0.001,-0.048
-0.0008,-0.056
-0.0006,-0.044
-0.0004,-0.036
-0.0002,-0.02
0,0.008
0.0002,-0.016
0.0004,-0.008
0.0006,-0.004
0.0008,0.008
0.001,-0.012
0.0012,0.008
0.0014,-0.008
0.0016,-0.012
0.0018,-0.008
0.002,-0.028
0.0022,-0.044
0.0024,-0.036
0.0026,-0.072
0.0028,-0.08
0.003,-0.068
0.0032,-0.092
0.0034,-0.06
0.0036,-0.08
0.0038,-0.056
0.004,-0.068
0.0042,-0.068
0.0044,-0.044
0.0046,-0.012
0.0048,-0.024
0.005,-0.004
0.0052,0.016
0.0054,0.036
0.0056,0.032
0.0058,0.04
0.006,0.052
0.0062,0.056
0.0064,0.056
0.0066,0.076
0.0068,0.072
0.007,0.076
0.0072,0.068
0.0074,0.068
0.0076,0.052
0.0078,0.064
0.008,0.048
0.0082,0.06
0.0084,0.048
0.0086,0.032
0.0088,0.036
0.009,0.044
0.0092,0.016
0.0094,0.016
0.0096,-0.008
0.0098,0
0.01,-0.004
0.0102,0.004
0.0104,-0.004
0.0106,0.012
0.0108,-0.012
0.011,-0.024
0.0112,0.008
0.0114,-0.004
0.0116,-0.02
0.0118,0.032
0.012,0.02
0.0122,0.036
0.0124,0.048
0.0126,0.052
0.0128,0.056
0.013,0.072
0.0132,0.044
0.0134,0.036
0.0136,0.044
0.0138,0.024
0.014,0.024
0.0142,0.012
0.0144,0.004
0.0146,0
0.0148,0
0.015,0
0.0152,-0.02
0.0154,-0.012
0.0156,-0.004
0.0158,-0.02
0.016,-0.048
0.0162,-0.04
0.0164,-0.032
0.0166,-0.048
0.0168,-0.06
0.017,-0.064
0.0172,-0.06
0.0174,-0.044
0.0176,-0.032
0.0178,-0.032
0.018,0
0.0182,-0.012
0.0184,-0.004
0.0186,0.02
0.0188,0.016
0.019,0.032
0.0192,0.04
0.0194,0.048
0.0196,0.04
0.0198,0.044
0.02,0.044
0.0202,0.016
0.0204,0.02
0.0206,0.028
0.0208,0.012
0.021,0.032
0.0212,0.04
0.0214,0.008
0.0216,0.012
0.0218,0.02
0.022,0.004
0.0222,-0.012
0.0224,-0.016
0.0226,-0.012
0.0228,-0.012
0.023,-0.024
0.0232,-0.032
0.0234,-0.032
0.0236,-0.016
0.0238,-0.028
0.024,-0.024
0.0242,-0.02
0.0244,0
0.0246,-0.008
0.0248,0.008
0.025,-0.012
0.0252,-0.008
0.0254,0
0.0256,0.004
0.0258,0.016
0.026,0.008
0.0262,-0.012
0.0264,-0.016
0.0266,-0.024
0.0268,-0.036
0.027,-0.036
0.0272,-0.056
0.0274,-0.056
0.0276,-0.044
0.0278,-0.056
0.028,-0.072
0.0282,-0.1
0.0284,-0.076
0.0286,-0.088
0.0288,-0.1
0.029,-0.12
0.0292,-0.092
0.0294,-0.116
0.0296,-0.116
0.0298,-0.12
0.03,-0.112
0.0302,-0.108
0.0304,-0.1
0.0306,-0.104
0.0308,-0.096
0.031,-0.076
0.0312,-0.096
0.0314,-0.104
0.0316,-0.1
0.0318,-0.076
0.032,-0.088
0.0322,-0.08
0.0324,-0.084
0.0326,-0.072
0.0328,-0.044
0.033,-0.08
0.0332,-0.068
0.0334,-0.056
0.0336,-0.044
0.0338,-0.052
0.034,-0.044
0.0342,-0.044
0.0344,-0.052
0.0346,-0.028
0.0348,-0.02
0.035,-0.032
0.0352,0.008
0.0354,0.016
0.0356,0.048
0.0358,0.052
0.036,0.036
0.0362,0.048
0.0364,0.06
0.0366,0.044
0.0368,0.048
0.037,0.036
0.0372,0.048
0.0374,0.044
0.0376,0.068
0.0378,0.06
0.038,0.06
0.0382,0.056
0.0384,0.052
0.0386,0.044
0.0388,0.02
0.039,0.032
0.0392,0.04
0.0394,0.016
0.0396,0.008
0.0398,0.004
0.04,-0.004
0.0402,0.008
0.0404,-0.024
0.0406,-0.028
0.0408,-0.036
0.041,-0.02
0.0412,-0.048
0.0414,-0.056
0.0416,-0.052
0.0418,-0.056
0.042,-0.064
0.0422,-0.076
0.0424,-0.08
0.0426,-0.096
0.0428,-0.096
0.043,-0.084
0.0432,-0.1
0.0434,-0.112
0.0436,-0.108
0.0438,-0.128
0.044,-0.108
0.0442,-0.108
0.0444,-0.116
0.0446,-0.108
0.0448,-0.096
0.045,-0.12
0.0452,-0.092
0.0454,-0.104
0.0456,-0.104
0.0458,-0.1
0.046,-0.08
0.0462,-0.104
0.0464,-0.104
0.0466,-0.088
0.0468,-0.08
0.047,-0.064
0.0472,-0.052
0.0474,-0.04
0.0476,-0.04
0.0478,-0.02
0.048,-0.012
0.0482,-0.008
0.0484,-0.02
0.0486,-0.024
0.0488,-0.024
0.049,-0.008
0.0492,-0.028
0.0494,-0.028
0.0496,-0.044
0.0498,-0.02
0.05,-0.008
0.0502,0
0.0504,-0.008
0.0506,-0.004
0.0508,0.036
0.051,0.032
0.0512,0.056
0.0514,0.06
0.0516,0.068
0.0518,0.08
0.052,0.1
0.0522,0.084
0.0524,0.088
0.0526,0.12
0.0528,0.12
0.053,0.1
0.0532,0.092
0.0534,0.1
0.0536,0.084
0.0538,0.068
0.054,0.064
0.0542,0.036
0.0544,0.02
0.0546,0.028
0.0548,-0.016
0.055,-0.024
0.0552,-0.008
0.0554,-0.024
0.0556,0
0.0558,-0.004
0.056,-0.024
0.0562,0.012
0.0564,0.024
0.0566,0.016
0.0568,0.004
0.057,-0.004
0.0572,0.012
0.0574,-0.008
0.0576,-0.02
0.0578,-0.028
0.058,-0.056
0.0582,-0.036
0.0584,-0.048
0.0586,-0.04
0.0588,-0.04
0.059,-0.04
0.0592,-0.048
0.0594,-0.06
0.0596,-0.076
0.0598,-0.084
0.06,-0.088
0.0602,-0.076
0.0604,-0.104
0.0606,-0.112
0.0608,-0.112
0.061,-0.12
0.0612,-0.148
0.0614,-0.16
0.0616,-0.172
0.0618,-0.192
0.062,-0.2
0.0622,-0.224
0.0624,-0.232
0.0626,-0.244
0.0628,-0.244
0.063,-0.256
0.0632,-0.232
0.0634,-0.228
0.0636,-0.224
0.0638,-0.2
0.064,-0.196
0.0642,-0.204
0.0644,-0.18
0.0646,-0.16
0.0648,-0.18
0.065,-0.148
0.0652,-0.156
0.0654,-0.156
0.0656,-0.18
0.0658,-0.164
0.066,-0.192
0.0662,-0.156
0.0664,-0.144
0.0666,-0.152
0.0668,-0.156
0.067,-0.148
0.0672,-0.16
0.0674,-0.148
0.0676,-0.148
0.0678,-0.156
0.068,-0.148
0.0682,-0.128
0.0684,-0.144
0.0686,-0.156
0.0688,-0.14
0.069,-0.14
0.0692,-0.136
0.0694,-0.132
0.0696,-0.116
0.0698,-0.112
0.07,-0.08
0.0702,-0.1
0.0704,-0.064
0.0706,-0.06
0.0708,-0.036
0.071,-0.012
0.0712,0.012
0.0714,-0.024
0.0716,0
0.0718,0.024
0.072,0.028
0.0722,0.012
0.0724,0.036
0.0726,0.016
0.0728,0.024
0.073,0.028
0.0732,0.012
0.0734,0.016
0.0736,0.02
0.0738,0.024
0.074,0.004
0.0742,-0.004
0.0744,0.008
0.0746,-0.016
0.0748,-0.016
0.075,0
0.0752,-0.008
0.0754,0.036
0.0756,0.04
0.0758,0.032
0.076,0.036
0.0762,0.024
0.0764,0.036
0.0766,0.04
0.0768,0.016
0.077,0.024
0.0772,0.004
0.0774,-0.004
0.0776,-0.016
0.0778,0
0.078,0
0.0782,-0.012
0.0784,0.012
0.0786,-0.008
0.0788,-0.012
0.079,-0.016
0.0792,-0.02
0.0794,-0.012
0.0796,-0.036
0.0798,-0.02
0.08,-0.032
0.0802,-0.032
0.0804,-0.032
0.0806,-0.04
0.0808,-0.008
0.081,0
0.0812,0
0.0814,0
0.0816,0.004
0.0818,0.016
0.082,0.008
0.0822,0.036
0.0824,0.032
0.0826,0.044
0.0828,0.084
0.083,0.1
0.0832,0.112
0.0834,0.116
0.0836,0.164
0.0838,0.152
0.084,0.152
0.0842,0.144
0.0844,0.144
0.0846,0.132
0.0848,0.132
0.085,0.096
0.0852,0.104
0.0854,0.068
0.0856,0.052
0.0858,0.016
0.086,-0.008
0.0862,-0.008
0.0864,-0.032
0.0866,-0.06
0.0868,-0.048
0.087,-0.052
0.0872,-0.06
0.0874,-0.076
0.0876,-0.088
0.0878,-0.096
0.088,-0.092
0.0882,-0.092
0.0884,-0.088
0.0886,-0.064
0.0888,-0.084
0.089,-0.064
0.0892,-0.048
0.0894,-0.044
0.0896,-0.028
0.0898,-0.004
0.09,-0.008
0.0902,0.008
0.0904,0.012
0.0906,0.016
0.0908,0.016
0.091,0.032
0.0912,0.032
0.0914,0.028
0.0916,0.02
0.0918,0.032
0.092,0.044
0.0922,0.036
0.0924,0.036
0.0926,0.028
0.0928,0.012
0.093,-0.008
0.0932,-0.012
0.0934,-0.02
0.0936,-0.032
0.0938,-0.04
0.094,-0.072
0.0942,-0.08
0.0944,-0.084
0.0946,-0.112
0.0948,-0.112
0.095,-0.128
0.0952,-0.148
0.0954,-0.132
0.0956,-0.148
0.0958,-0.144
0.096,-0.148
0.0962,-0.156
0.0964,-0.16
0.0966,-0.136
0.0968,-0.148
0.097,-0.16
0.0972,-0.148
0.0974,-0.148
0.0976,-0.16
0.0978,-0.164
0.098,-0.148
0.0982,-0.144
0.0984,-0.132
0.0986,-0.144
0.0988,-0.148
0.099,-0.156
0.0992,-0.12
0.0994,-0.108
0.0996,-0.104
0.0998,-0.1
0.1,-0.088
0.1,-0.108
0.1,-0.084
0.101,-0.12
0.101,-0.1
0.101,-0.096
0.101,-0.092
0.101,-0.116
0.102,-0.092
0.102,-0.096
0.102,-0.088
0.102,-0.088
0.102,-0.096
0.103,-0.092
0.103,-0.088
0.103,-0.084
0.103,-0.104
0.103,-0.092
0.104,-0.088
0.104,-0.12
0.104,-0.092
0.104,-0.104
0.104,-0.104
0.105,-0.084
0.105,-0.064
0.105,-0.084
0.105,-0.052
0.105,-0.064
0.106,-0.056
0.106,-0.048
0.106,-0.064
0.106,-0.068
0.106,-0.044
0.107,-0.052
0.107,-0.064
0.107,-0.072
0.107,-0.068
0.107,-0.056
0.108,-0.092
0.108,-0.072
0.108,-0.088
0.108,-0.084
0.108,-0.072
0.109,-0.084
0.109,-0.068
0.109,-0.064
0.109,-0.052
0.109,-0.052
0.11,-0.068
0.11,-0.064
0.11,-0.06
0.11,-0.028
0.11,-0.064
0.111,-0.056
0.111,-0.028
0.111,-0.036
0.111,-0.044
0.111,-0.032
0.112,-0.028
0.112,-0.016
0.112,0.02
0.112,0.02
0.112,0.028
0.113,0.048
0.113,0.032
0.113,0.024
0.113,0.04
0.113,0.028
0.114,0.024
0.114,0.036
0.114,0.04
0.114,0.028
0.114,0.024
0.115,0.024
0.115,0.04
0.115,0.024
0.115,0.036
0.115,0.028
0.116,0.008
0.116,0.004
0.116,0
0.116,-0.008
0.116,0.004
0.117,0.008
0.117,-0.004
0.117,-0.02
0.117,-0.032
0.117,-0.036
0.118,-0.028
0.118,-0.048
0.118,-0.044
0.118,-0.012
0.118,-0.02
0.119,-0.036
0.119,-0.016
0.119,-0.008
0.119,-0.012
0.119,-0.012
0.12,-0.032
0.12,-0.012
0.12,-0.016
0.12,-0.032
0.12,-0.02
0.121,-0.032
0.121,-0.012
0.121,-0.02
0.121,-0.004
0.121,-0.008
0.122,0
0.122,-0.008
0.122,-0.024
0.122,-0.028
0.122,-0.012
0.123,-0.008
0.123,-0.032
0.123,-0.02
0.123,-0.02
0.123,-0.016
0.124,0.016
0.124,-0.008
0.124,-0.008
0.124,-0.016
0.124,-0.016
0.125,0.008
0.125,0
0.125,-0.016
0.125,-0.04
0.125,-0.02
0.126,-0.024
0.126,-0.036
0.126,-0.044
0.126,-0.06
0.126,-0.028
0.127,-0.048
0.127,-0.04
0.127,-0.044
0.127,-0.032
0.127,-0.024
0.128,-0.04
0.128,-0.024
0.128,-0.024
0.128,-0.044
0.128,-0.048
0.129,-0.048
0.129,-0.044
0.129,-0.06
0.129,-0.068
0.129,-0.076
0.13,-0.076
0.13,-0.068
0.13,-0.072
0.13,-0.068
0.13,-0.084
0.131,-0.076
0.131,-0.064
0.131,-0.084
0.131,-0.08
0.131,-0.06
0.132,-0.064
0.132,-0.04
0.132,-0.016
0.132,-0.004
0.132,0.04
0.133,0.052
0.133,0.068
0.133,0.096
0.133,0.1
0.133,0.124
0.134,0.12
0.134,0.136
0.134,0.124
0.134,0.12
0.134,0.132
0.135,0.136
0.135,0.128
0.135,0.128
0.135,0.132
0.135,0.156
0.136,0.136
0.136,0.14
0.136,0.148
0.136,0.148
0.136,0.148
0.137,0.16
0.137,0.144
0.137,0.172
0.137,0.168
0.137,0.172
0.138,0.164
0.138,0.184
0.138,0.184
0.138,0.192
0.138,0.228
0.139,0.196
0.139,0.232
0.139,0.228
0.139,0.232
0.139,0.256
0.14,0.256
0.14,0.268
0.14,0.292
0.14,0.288
0.14,0.304
0.141,0.288
0.141,0.32
0.141,0.332
0.141,0.34
0.141,0.368
0.142,0.364
0.142,0.368
0.142,0.396
0.142,0.408
0.142,0.4
0.143,0.44
0.143,0.468
0.143,0.484
0.143,0.5
0.143,0.516
0.144,0.56
0.144,0.588
0.144,0.62
0.144,0.664
0.144,0.7
0.145,0.732
0.145,0.772
0.145,0.796
0.145,0.844
0.145,0.872
0.146,0.88
0.146,0.896
0.146,0.924
0.146,0.952
0.146,0.988
0.147,0.972
0.147,1.016
0.147,1.044
0.147,1.084
0.147,1.084
0.148,1.112
0.148,1.144
0.148,1.18
0.148,1.184
0.148,1.184
0.149,1.2
0.149,1.228
0.149,1.236
0.149,1.212
0.149,1.212
0.15,1.2
0.15,1.204
0.15,1.212
0.15,1.176
0.15,1.204
0.151,1.208
0.151,1.196
0.151,1.22
0.151,1.2
0.151,1.212
0.152,1.2
0.152,1.2
0.152,1.18
0.152,1.156
0.152,1.128
0.153,1.12
0.153,1.104
0.153,1.072
0.153,1.036
0.153,1.028
0.154,1.048
0.154,1.04
0.154,1.024
0.154,1.008
0.154,1.04
0.155,1.012
0.155,1.004
0.155,1.012
0.155,1.016
0.155,1.024
0.156,1.012
0.156,0.988
0.156,0.996
0.156,0.968
0.156,0.936
0.157,0.928
0.157,0.864
0.157,0.856
0.157,0.836
0.157,0.808
0.158,0.796
0.158,0.752
0.158,0.74
0.158,0.728
0.158,0.704
0.159,0.688
0.159,0.676
0.159,0.664
0.159,0.668
0.159,0.656
0.16,0.62
0.16,0.612
0.16,0.636
0.16,0.608
0.16,0.588
0.161,0.588
0.161,0.588
0.161,0.572
0.161,0.54
0.161,0.52
0.162,0.492
0.162,0.46
0.162,0.448
0.162,0.42
0.162,0.396
0.163,0.384
0.163,0.352
0.163,0.348
0.163,0.304
0.163,0.304
0.164,0.28
0.164,0.28
0.164,0.252
0.164,0.256
0.164,0.248
0.165,0.216
0.165,0.208
0.165,0.184
0.165,0.18
0.165,0.192
0.166,0.148
0.166,0.112
0.166,0.14
0.166,0.112
0.166,0.112
0.167,0.12
0.167,0.104
0.167,0.1
0.167,0.092
0.167,0.08
0.168,0.044
0.168,0.036
0.168,0.032
0.168,0.04
0.168,0.024
0.169,0.004
0.169,-0.012
0.169,-0.024
0.169,-0.024
0.169,-0.04
0.17,-0.072
0.17,-0.096
0.17,-0.1
0.17,-0.14
0.17,-0.152
0.171,-0.16
0.171,-0.196
0.171,-0.224
0.171,-0.252
0.171,-0.284
0.172,-0.312
0.172,-0.324
0.172,-0.372
0.172,-0.388
0.172,-0.404
0.173,-0.424
0.173,-0.46
0.173,-0.496
0.173,-0.536
0.173,-0.58
0.174,-0.612
0.174,-0.636
0.174,-0.7
0.174,-0.744
0.174,-0.764
0.175,-0.82
0.175,-0.844
0.175,-0.884
0.175,-0.92
0.175,-0.972
0.176,-0.964
0.176,-0.984
0.176,-1.016
0.176,-0.988
0.176,-1.02
0.177,-1.028
0.177,-1.024
0.177,-1.028
0.177,-1.044
0.177,-1.064
0.178,-1.088
0.178,-1.108
0.178,-1.132
0.178,-1.136
0.178,-1.16
0.179,-1.16
0.179,-1.188
0.179,-1.168
0.179,-1.184
0.179,-1.196
0.18,-1.188
0.18,-1.18
0.18,-1.16
0.18,-1.164
0.18,-1.156
0.181,-1.136
0.181,-1.152
0.181,-1.128
0.181,-1.112
0.181,-1.124
0.182,-1.088
0.182,-1.1
0.182,-1.084
0.182,-1.08
0.182,-1.076
0.183,-1.048
0.183,-1.056
0.183,-1.06
0.183,-1.072
0.183,-1.052
0.184,-1.06
0.184,-1.068
0.184,-1.056
0.184,-1.06
0.184,-1.06
0.185,-1.052
0.185,-1.036
0.185,-1.068
0.185,-1.048
0.185,-1.032
0.186,-1.052
0.186,-1.032
0.186,-1.012
0.186,-1.016
0.186,-1
0.187,-0.984
0.187,-0.984
0.187,-0.98
0.187,-0.94
0.187,-0.94
0.188,-0.928
0.188,-0.928
0.188,-0.88
0.188,-0.864
0.188,-0.844
0.189,-0.84
0.189,-0.828
0.189,-0.784
0.189,-0.8
0.189,-0.752
0.19,-0.756
0.19,-0.724
0.19,-0.704
0.19,-0.7
0.19,-0.668
0.191,-0.66
0.191,-0.636
0.191,-0.612
0.191,-0.596
0.191,-0.572
0.192,-0.552
0.192,-0.532
0.192,-0.516
0.192,-0.492
0.192,-0.484
0.193,-0.456
0.193,-0.476
0.193,-0.46
0.193,-0.464
0.193,-0.464
0.194,-0.44
0.194,-0.42
0.194,-0.44
0.194,-0.416
0.194,-0.416
0.195,-0.388
0.195,-0.396
0.195,-0.376
0.195,-0.38
0.195,-0.36
0.196,-0.356
0.196,-0.352
0.196,-0.344
0.196,-0.336
0.196,-0.324
0.197,-0.332
0.197,-0.324
0.197,-0.328
0.197,-0.316
0.197,-0.332
0.198,-0.336
0.198,-0.316
0.198,-0.32
0.198,-0.308
0.198,-0.296
0.199,-0.296
0.199,-0.268
0.199,-0.264
0.199,-0.272
0.199,-0.252
0.2,-0.228
0.2,-0.228
0.2,-0.232
0.2,-0.208
0.2,-0.208
0.201,-0.192
0.201,-0.184
0.201,-0.196
0.201,-0.18
0.201,-0.18
0.202,-0.168
0.202,-0.16
0.202,-0.156
0.202,-0.16
0.202,-0.14
0.203,-0.14
0.203,-0.128
0.203,-0.108
0.203,-0.1
0.203,-0.096
0.204,-0.1
0.204,-0.104
0.204,-0.096
0.204,-0.1
0.204,-0.088
0.205,-0.084
0.205,-0.072
0.205,-0.08
0.205,-0.092
0.205,-0.112
0.206,-0.14
0.206,-0.12
0.206,-0.148
0.206,-0.136
0.206,-0.136
0.207,-0.128
0.207,-0.132
0.207,-0.104
0.207,-0.088
0.207,-0.076
0.208,-0.068
0.208,-0.04
0.208,-0.004
0.208,0.02
0.208,0.06
0.209,0.08
0.209,0.088
0.209,0.1
0.209,0.116
0.209,0.132
0.21,0.112
0.21,0.128
0.21,0.112
0.21,0.124
0.21,0.124
0.211,0.084
0.211,0.108
0.211,0.112
0.211,0.084
0.211,0.056
0.212,0.06
0.212,0.072
0.212,0.056
0.212,0.052
0.212,0.016
0.213,0.016
0.213,0.004
0.213,-0.032
0.213,-0.06
0.213,-0.068
0.214,-0.072
0.214,-0.072
0.214,-0.096
0.214,-0.092
0.214,-0.1
0.215,-0.116
0.215,-0.136
0.215,-0.14
0.215,-0.14
0.215,-0.108
0.216,-0.112
0.216,-0.112
0.216,-0.092
0.216,-0.084
0.216,-0.092
0.217,-0.108
0.217,-0.08
0.217,-0.064
0.217,-0.076
0.217,-0.044
0.218,-0.028
0.218,-0.028
0.218,-0.04
0.218,-0.012
0.218,0.02
0.219,0.016
0.219,0.036
0.219,0.04
0.219,0.044
0.219,0.032
0.22,0.068
0.22,0.072
0.22,0.092
0.22,0.108
0.22,0.108
0.221,0.128
0.221,0.136
0.221,0.156
0.221,0.16
0.221,0.18
0.222,0.176
0.222,0.18
0.222,0.176
0.222,0.188
0.222,0.204
0.223,0.196
0.223,0.2
0.223,0.184
0.223,0.18
0.223,0.196
0.224,0.164
0.224,0.16
0.224,0.172
0.224,0.136
0.224,0.152
0.225,0.12
0.225,0.112
0.225,0.1
0.225,0.088
0.225,0.072
0.226,0.068
0.226,0.064
0.226,0.072
0.226,0.052
0.226,0.056
0.227,0.06
0.227,0.064
0.227,0.052
0.227,0.08
0.227,0.08
0.228,0.096
0.228,0.076
0.228,0.08
0.228,0.068
0.228,0.08
0.229,0.056
0.229,0.052
0.229,0.064
0.229,0.056
0.229,0.052
0.23,0.044
0.23,0.048
0.23,0.044
0.23,0.056
0.23,0.028
0.231,0.04
0.231,0.052
0.231,0.036
0.231,0.04
0.231,0.02
0.232,0.04
0.232,0.04
0.232,0.032
0.232,0.044
0.232,0.056
0.233,0.088
0.233,0.068
0.233,0.104
0.233,0.096
0.233,0.088
0.234,0.124
0.234,0.108
0.234,0.136
0.234,0.124
0.234,0.144
0.235,0.136
0.235,0.152
0.235,0.132
0.235,0.156
0.235,0.172
0.236,0.184
0.236,0.176
0.236,0.172
0.236,0.188
0.236,0.164
0.237,0.164
0.237,0.144
0.237,0.152
0.237,0.156
0.237,0.156
0.238,0.12
0.238,0.124
0.238,0.136
0.238,0.116
0.238,0.112
0.239,0.088
0.239,0.1
0.239,0.12
0.239,0.128
0.239,0.108
0.24,0.104
0.24,0.096
0.24,0.128
0.24,0.084
0.24,0.104
0.241,0.12
0.241,0.124
0.241,0.116
0.241,0.116
0.241,0.108
0.242,0.104
0.242,0.112
0.242,0.108
0.242,0.096
0.242,0.104
0.243,0.088
0.243,0.088
0.243,0.072
0.243,0.084
0.243,0.08
0.244,0.08
0.244,0.108
0.244,0.116
0.244,0.104
0.244,0.116
0.245,0.12
0.245,0.124
0.245,0.112
0.245,0.12
0.245,0.112
0.246,0.1
0.246,0.096
0.246,0.068
0.246,0.088
0.246,0.08
0.247,0.08
0.247,0.044
0.247,0.036
0.247,0.052
0.247,0.044
0.248,0.036
0.248,0.02
0.248,0.036
0.248,0.044
0.248,0.028
0.249,0.04
0.249,0.044
0.249,0.056
0.249,0.064
0.249,0.08
0.25,0.076
0.25,0.084
0.25,0.088
0.25,0.096
0.25,0.088
0.251,0.096
0.251,0.072
0.251,0.052
0.251,0.068
0.251,0.056
0.252,0.064
0.252,0.056
0.252,0.032
0.252,0.044
0.252,0.024
0.253,0.008
0.253,-0.02
0.253,-0.024
0.253,-0.028
0.253,-0.048
0.254,-0.052
0.254,-0.04
0.254,-0.052
0.254,-0.024
0.254,-0.02
0.255,-0.028
0.255,0.004
0.255,-0.008
0.255,-0.004
0.255,0
0.256,0.004
0.256,-0.008
0.256,0.004
0.256,0
0.256,0
0.257,-0.012
0.257,-0.032
0.257,-0.024
0.257,-0.012
0.257,-0.052
0.258,-0.04
0.258,-0.052
0.258,-0.028
0.258,-0.04
0.258,-0.048
0.259,-0.024
0.259,-0.012
0.259,-0.008
0.259,-0.004
0.259,0.016
0.26,0.024
0.26,0.036
0.26,0.028
0.26,0.024
0.26,0.032
0.261,0.036
0.261,0.02
0.261,0.032
0.261,0.064
0.261,0.036
0.262,0.032
0.262,0.052
0.262,0.036
0.262,0.02
0.262,0.036
0.263,0.012
0.263,0.008
0.263,0.016
0.263,-0.024
0.263,-0.008
0.264,-0.016
0.264,-0.02
0.264,-0.048
0.264,-0.032
0.264,-0.044
0.265,-0.02
0.265,-0.028
0.265,-0.016
0.265,-0.008
0.265,0.008
0.266,0.008
0.266,0.032
0.266,0.048
0.266,0.064
0.266,0.084
0.267,0.088
0.267,0.108
0.267,0.108
0.267,0.116
0.267,0.108
0.268,0.112
0.268,0.124
0.268,0.132
0.268,0.136
0.268,0.156
0.269,0.164
0.269,0.156
0.269,0.16
0.269,0.18
0.269,0.168
0.27,0.164
0.27,0.176
0.27,0.172
0.27,0.192
0.27,0.172
0.271,0.172
0.271,0.168
0.271,0.164
0.271,0.164
0.271,0.176
0.272,0.18
0.272,0.156
0.272,0.14
0.272,0.108
0.272,0.092
0.273,0.076
0.273,0.064
0.273,0.044
0.273,0.024
0.273,0.028
0.274,0.032
0.274,0.02
0.274,0.028
0.274,0.032
0.274,0.036
0.275,0.06
0.275,0.076
0.275,0.1
0.275,0.108
0.275,0.144
0.276,0.14
0.276,0.116
0.276,0.124
0.276,0.1
0.276,0.08
0.277,0.068
0.277,0.06
0.277,0.028
0.277,0.048
0.277,0.044
0.278,0.028
0.278,0.044
0.278,0.048
0.278,0.06
0.278,0.084
0.279,0.104
0.279,0.08
0.279,0.104
0.279,0.108
0.279,0.132
0.28,0.112
0.28,0.112
0.28,0.124
0.28,0.132
0.28,0.092
0.281,0.124
0.281,0.144
0.281,0.116
0.281,0.12
0.281,0.096
0.282,0.088
0.282,0.08
0.282,0.044
0.282,0.036
0.282,0.036
0.283,0.036
0.283,0.012
0.283,-0.016
0.283,-0.04
0.283,-0.036
0.284,-0.032
0.284,-0.068
0.284,-0.072
0.284,-0.072
0.284,-0.096
0.285,-0.104
0.285,-0.116
0.285,-0.12
0.285,-0.088
0.285,-0.1
0.286,-0.08
0.286,-0.06
0.286,-0.064
0.286,-0.036
0.286,-0.028
0.287,-0.02
0.287,0.004
0.287,0.016
0.287,0.044
0.287,0.056
0.288,0.076
0.288,0.072
0.288,0.064
0.288,0.076
0.288,0.08
0.289,0.06
0.289,0.052
0.289,0.044
0.289,0.028
0.289,-0.016
0.29,0
0.29,-0.008
0.29,-0.012
0.29,-0.028
0.29,-0.052
0.291,-0.056
0.291,-0.056
0.291,-0.076
0.291,-0.112
0.291,-0.1
0.292,-0.112
0.292,-0.096
0.292,-0.104
0.292,-0.096
0.292,-0.092
0.293,-0.052
0.293,-0.056
0.293,-0.06
0.293,-0.048
0.293,-0.024
0.294,-0.028
0.294,-0.004
0.294,0.028
0.294,0.02
0.294,0.032
0.295,0.076
0.295,0.056
0.295,0.06
0.295,0.06
0.295,0.076
0.296,0.076
0.296,0.072
0.296,0.06
0.296,0.064
0.296,0.072
0.297,0.068
0.297,0.076
0.297,0.068
0.297,0.068
0.297,0.06
0.298,0.068
0.298,0.036
0.298,0.048
0.298,0.04
0.298,0.036
0.299,-0.004
0.299,0.008
0.299,0.008
0.299,-0.012
0.299,0
0.3,0.004
0.3,0.004
0.3,0.028
0.3,0.024
0.3,0.008
0.301,0.06
0.301,0.084
0.301,0.084
0.301,0.1
0.301,0.124
0.302,0.124
0.302,0.152
0.302,0.144
0.302,0.164
0.302,0.164
0.303,0.204
0.303,0.216
0.303,0.212
0.303,0.212
0.303,0.212
0.304,0.22
0.304,0.208
0.304,0.188
0.304,0.208
0.304,0.208
0.305,0.192
0.305,0.164
0.305,0.156
0.305,0.156
0.305,0.156
0.306,0.14
0.306,0.14
0.306,0.12
0.306,0.14
0.306,0.156
0.307,0.116
0.307,0.116
0.307,0.12
0.307,0.124
0.307,0.144
0.308,0.132
0.308,0.124
0.308,0.156
0.308,0.18
0.308,0.184
0.309,0.168
0.309,0.168
0.309,0.164
0.309,0.148
0.309,0.144
0.31,0.128
0.31,0.108
0.31,0.108
0.31,0.116
0.31,0.092
0.311,0.084
0.311,0.068
0.311,0.048
0.311,0.068
0.311,0.068
0.312,0.028
0.312,0.044
0.312,0.052
0.312,0.072
0.312,0.052
0.313,0.068
0.313,0.056
0.313,0.06
0.313,0.04
0.313,0.032
0.314,0.06
0.314,0.06
0.314,0.048
0.314,0.048
0.314,0.06
0.315,0.052
0.315,0.068
0.315,0.072
0.315,0.084
0.315,0.108
0.316,0.128
0.316,0.12
0.316,0.12
0.316,0.144
0.316,0.152
0.317,0.124
0.317,0.092
0.317,0.104
0.317,0.088
0.317,0.084
0.318,0.036
0.318,0.04
0.318,0.048
0.318,0.04
0.318,0.048
0.319,0.064
0.319,0.044
0.319,0.056
0.319,0.076
0.319,0.072
0.32,0.08
0.32,0.104
0.32,0.108
0.32,0.1
0.32,0.112
0.321,0.148
0.321,0.164
0.321,0.156
0.321,0.188
0.321,0.18
0.322,0.16
0.322,0.184
0.322,0.18
0.322,0.16
0.322,0.18
0.323,0.18
0.323,0.184
0.323,0.192
0.323,0.168
0.323,0.16
0.324,0.152
0.324,0.164
0.324,0.144
0.324,0.152
0.324,0.14
0.325,0.16
0.325,0.136
0.325,0.156
0.325,0.164
0.325,0.18
0.326,0.188
0.326,0.192
0.326,0.196
0.326,0.216
0.326,0.224
0.327,0.228
0.327,0.256
0.327,0.26
0.327,0.276
0.327,0.276
0.328,0.28
0.328,0.272
0.328,0.292
0.328,0.268
0.328,0.272
0.329,0.292
0.329,0.248
0.329,0.236
0.329,0.232
0.329,0.224
0.33,0.216
0.33,0.208
0.33,0.212
0.33,0.2
0.33,0.208
0.331,0.228
0.331,0.24
0.331,0.252
0.331,0.268
0.331,0.264
0.332,0.28
0.332,0.3
0.332,0.284
0.332,0.288
0.332,0.288
0.333,0.256
0.333,0.272
0.333,0.28
0.333,0.248
0.333,0.268
0.334,0.26
0.334,0.228
0.334,0.232
0.334,0.228
0.334,0.212
0.335,0.204
0.335,0.184
0.335,0.184
0.335,0.196
0.335,0.204
0.336,0.2
0.336,0.208
0.336,0.212
0.336,0.236
0.336,0.208
0.337,0.232
0.337,0.216
0.337,0.232
0.337,0.244
0.337,0.26
0.338,0.268
0.338,0.3
0.338,0.304
0.338,0.3
0.338,0.284
0.339,0.296
0.339,0.304
0.339,0.328
0.339,0.312
0.339,0.296
0.34,0.3
0.34,0.3
0.34,0.28
0.34,0.272
0.34,0.248
0.341,0.224
0.341,0.236
0.341,0.244
0.341,0.204
0.341,0.188
0.342,0.184
0.342,0.176
0.342,0.16
0.342,0.172
0.342,0.156
0.343,0.172
0.343,0.16
0.343,0.148
0.343,0.12
0.343,0.104
0.344,0.108
0.344,0.092
0.344,0.088
0.344,0.084
0.344,0.08
0.345,0.084
0.345,0.072
0.345,0.064
0.345,0.072
0.345,0.088
0.346,0.092
0.346,0.08
0.346,0.088
0.346,0.092
0.346,0.124
0.347,0.108
0.347,0.108
0.347,0.12
0.347,0.14
0.347,0.112
0.348,0.108
0.348,0.112
0.348,0.104
0.348,0.084
0.348,0.092
0.349,0.068
0.349,0.056
0.349,0.056
0.349,0.028
0.349,0.016
0.35,0.024
0.35,0.008
0.35,0.024
0.35,0.004
0.35,0
0.351,0
0.351,0.036
0.351,0.052
0.351,0.052
0.351,0.06
0.352,0.092
0.352,0.104
0.352,0.1
0.352,0.112
0.352,0.128
0.353,0.144
0.353,0.136
0.353,0.156
0.353,0.16
0.353,0.18
0.354,0.168
0.354,0.168
0.354,0.18
0.354,0.2
0.354,0.208
0.355,0.24
0.355,0.236
0.355,0.228
0.355,0.256
0.355,0.24
0.356,0.256
0.356,0.268
0.356,0.284
0.356,0.268
0.356,0.3
0.357,0.288
0.357,0.3
0.357,0.272
0.357,0.288
0.357,0.304
0.358,0.28
0.358,0.284
0.358,0.292
0.358,0.288
0.358,0.264
0.359,0.24
0.359,0.22
0.359,0.22
0.359,0.208
0.359,0.156
0.36,0.164
0.36,0.14
0.36,0.12
0.36,0.112
0.36,0.084
0.361,0.088
0.361,0.1
0.361,0.096
0.361,0.1
0.361,0.092
0.362,0.072
0.362,0.068
0.362,0.064
0.362,0.06
0.362,0.032
0.363,0.044
0.363,0.028
0.363,0.036
0.363,0.032
0.363,0.016
0.364,0.032
0.364,0.02
0.364,0.044
0.364,0.052
0.364,0.044
0.365,0.068
0.365,0.088
0.365,0.084
0.365,0.108
0.365,0.124
0.366,0.108
0.366,0.112
0.366,0.1
0.366,0.092
0.366,0.096
0.367,0.092
0.367,0.1
0.367,0.12
0.367,0.12
0.367,0.108
0.368,0.112
0.368,0.096
0.368,0.128
0.368,0.168
0.368,0.144
0.369,0.152
0.369,0.156
0.369,0.164
0.369,0.132
0.369,0.136
0.37,0.152
0.37,0.168
0.37,0.18
0.37,0.168
0.37,0.148
0.371,0.184
0.371,0.2
0.371,0.208
0.371,0.196
0.371,0.208
0.372,0.228
0.372,0.24
0.372,0.24
0.372,0.216
0.372,0.216
0.373,0.248
0.373,0.228
0.373,0.224
0.373,0.22
0.373,0.204
0.374,0.204
0.374,0.204
0.374,0.188
0.374,0.164
0.374,0.16
0.375,0.168
0.375,0.136
0.375,0.12
0.375,0.124
0.375,0.12
0.376,0.132
0.376,0.128
0.376,0.104
0.376,0.108
0.376,0.1
0.377,0.08
0.377,0.06
0.377,0.036
0.377,0.028
0.377,0
0.378,-0.012
0.378,-0.032
0.378,-0.064
0.378,-0.08
0.378,-0.08
0.379,-0.084
0.379,-0.092
0.379,-0.096
0.379,-0.076
0.379,-0.08
0.38,-0.072
0.38,-0.052
0.38,-0.056
0.38,-0.072
0.38,-0.06
0.381,-0.048
0.381,-0.048
0.381,-0.056
0.381,-0.036
0.381,-0.036
0.382,-0.032
0.382,-0.024
0.382,-0.028
0.382,-0.024
0.382,-0.008
0.383,0.008
0.383,0
0.383,0.02
0.383,0.04
0.383,0.024
0.384,0.052
0.384,0.044
0.384,0.028
0.384,0.044
0.384,0.052
0.385,0.048
0.385,0.052
0.385,0.012
0.385,0.028
0.385,-0.008
0.386,-0.028
0.386,-0.048
0.386,-0.064
0.386,-0.048
0.386,-0.072
0.387,-0.064
0.387,-0.072
0.387,-0.06
0.387,-0.048
0.387,-0.04
0.388,-0.032
0.388,-0.04
0.388,-0.012
0.388,0.004
0.388,-0.016
0.389,-0.012
0.389,0.012
0.389,-0.012
0.389,0
0.389,-0.012
0.39,0
0.39,-0.008
0.39,-0.004
0.39,-0.024
0.39,-0.016
0.391,-0.024
0.391,-0.036
0.391,-0.028
0.391,-0.032
0.391,-0.052
0.392,-0.056
0.392,-0.072
0.392,-0.06
0.392,-0.1
0.392,-0.096
0.393,-0.108
0.393,-0.108
0.393,-0.124
0.393,-0.136
0.393,-0.148
0.394,-0.132
0.394,-0.128
0.394,-0.16
0.394,-0.144
0.394,-0.148
0.395,-0.168
0.395,-0.18
0.395,-0.176
0.395,-0.176
0.395,-0.156
0.396,-0.136
0.396,-0.12
0.396,-0.1
0.396,-0.084
0.396,-0.084
0.397,-0.044
0.397,-0.048
0.397,-0.004
0.397,0
0.397,0.016
0.398,0
0.398,0.024
0.398,0.004
0.398,-0.012
0.398,0.012
0.399,0.008
0.399,-0.016
0.399,-0.012
0.399,-0.02
0.399,-0.036
0.4,-0.048
0.4,-0.056
0.4,-0.068
0.4,-0.08
0.4,-0.088
0.401,-0.1
0.401,-0.112
0.401,-0.132
0.401,-0.144
0.401,-0.16
0.402,-0.16
0.402,-0.168
0.402,-0.18
0.402,-0.192
0.402,-0.172
0.403,-0.168
0.403,-0.168
0.403,-0.148
0.403,-0.148
0.403,-0.14
0.404,-0.088
0.404,-0.108
0.404,-0.112
0.404,-0.088
0.404,-0.076
0.405,-0.068
0.405,-0.044
0.405,-0.04
0.405,-0.052
0.405,-0.048
0.406,-0.036
0.406,-0.04
0.406,-0.032
0.406,-0.076
0.406,-0.072
0.407,-0.092
0.407,-0.116
0.407,-0.14
0.407,-0.136
0.407,-0.132
0.408,-0.152
0.408,-0.184
0.408,-0.172
0.408,-0.184
0.408,-0.2
0.409,-0.188
0.409,-0.204
0.409,-0.22
0.409,-0.204
0.409,-0.204
0.41,-0.224
0.41,-0.224
0.41,-0.232
0.41,-0.248
0.41,-0.244
0.411,-0.268
0.411,-0.268
0.411,-0.284
0.411,-0.3
0.411,-0.312
0.412,-0.324
0.412,-0.324
0.412,-0.332
0.412,-0.368
0.412,-0.344
0.413,-0.34
0.413,-0.36
0.413,-0.368
0.413,-0.36
0.413,-0.352
0.414,-0.34
0.414,-0.332
0.414,-0.328
0.414,-0.304
0.414,-0.316
0.415,-0.308
0.415,-0.308
0.415,-0.296
0.415,-0.276
0.415,-0.248
0.416,-0.26
0.416,-0.248
0.416,-0.232
0.416,-0.244
0.416,-0.232
0.417,-0.212
0.417,-0.228
0.417,-0.192
0.417,-0.184
0.417,-0.188
0.418,-0.196
0.418,-0.2
0.418,-0.18
0.418,-0.2
0.418,-0.2
0.419,-0.204
0.419,-0.208
0.419,-0.2
0.419,-0.22
0.419,-0.232
0.42,-0.228
0.42,-0.22
0.42,-0.24
0.42,-0.232
0.42,-0.244
0.421,-0.224
0.421,-0.224
0.421,-0.224
0.421,-0.232
0.421,-0.216
0.422,-0.2
0.422,-0.204
0.422,-0.172
0.422,-0.18
0.422,-0.176
0.423,-0.156
0.423,-0.168
0.423,-0.16
0.423,-0.168
0.423,-0.16
0.424,-0.136
0.424,-0.164
0.424,-0.14
0.424,-0.116
0.424,-0.1
0.425,-0.096
0.425,-0.096
0.425,-0.096
0.425,-0.1
0.425,-0.096
0.426,-0.096
0.426,-0.1
0.426,-0.108
0.426,-0.132
0.426,-0.156
0.427,-0.164
0.427,-0.184
0.427,-0.204
0.427,-0.24
0.427,-0.252
0.428,-0.248
0.428,-0.256
0.428,-0.26
0.428,-0.252
0.428,-0.256
0.429,-0.256
0.429,-0.256
0.429,-0.244
0.429,-0.26
0.429,-0.264
0.43,-0.268
0.43,-0.252
0.43,-0.26
0.43,-0.256
0.43,-0.272
0.431,-0.26
0.431,-0.252
0.431,-0.264
0.431,-0.252
0.431,-0.232
0.432,-0.24
0.432,-0.228
0.432,-0.204
0.432,-0.196
0.432,-0.196
0.433,-0.184
0.433,-0.172
0.433,-0.2
0.433,-0.172
0.433,-0.176
0.434,-0.168
0.434,-0.18
0.434,-0.176
0.434,-0.196
0.434,-0.172
0.435,-0.196
0.435,-0.164
0.435,-0.196
0.435,-0.148
0.435,-0.184
0.436,-0.184
0.436,-0.184
0.436,-0.192
0.436,-0.184
0.436,-0.168
0.437,-0.188
0.437,-0.196
0.437,-0.156
0.437,-0.148
0.437,-0.16
0.438,-0.148
0.438,-0.152
0.438,-0.152
0.438,-0.132
0.438,-0.168
0.439,-0.144
0.439,-0.128
0.439,-0.132
0.439,-0.128
0.439,-0.132
0.44,-0.14
0.44,-0.14
0.44,-0.164
0.44,-0.156
0.44,-0.172
0.441,-0.188
0.441,-0.2
0.441,-0.212
0.441,-0.2
0.441,-0.208
0.442,-0.208
0.442,-0.196
0.442,-0.192
0.442,-0.184
0.442,-0.18
0.443,-0.164
0.443,-0.132
0.443,-0.164
0.443,-0.16
0.443,-0.136
0.444,-0.148
0.444,-0.144
0.444,-0.148
0.444,-0.136
0.444,-0.116
0.445,-0.124
0.445,-0.124
0.445,-0.124
0.445,-0.132
0.445,-0.128
0.446,-0.136
0.446,-0.156
0.446,-0.16
0.446,-0.152
0.446,-0.188
0.447,-0.184
0.447,-0.196
0.447,-0.208
0.447,-0.208
0.447,-0.228
0.448,-0.228
0.448,-0.24
0.448,-0.252
0.448,-0.268
0.448,-0.264
0.449,-0.288
0.449,-0.26
0.449,-0.284
0.449,-0.292
0.449,-0.288
0.45,-0.26
0.45,-0.268
0.45,-0.26
0.45,-0.248
0.45,-0.228
0.451,-0.232
0.451,-0.212
0.451,-0.2
0.451,-0.196
0.451,-0.184
0.452,-0.184
0.452,-0.168
0.452,-0.168
0.452,-0.176
0.452,-0.168
0.453,-0.136
0.453,-0.168
0.453,-0.152
0.453,-0.144
0.453,-0.124
0.454,-0.128
0.454,-0.104
0.454,-0.124
0.454,-0.112
0.454,-0.12
0.455,-0.116
0.455,-0.128
0.455,-0.144
0.455,-0.152
0.455,-0.156
0.456,-0.188
0.456,-0.212
0.456,-0.204
0.456,-0.184
0.456,-0.196
0.457,-0.192
0.457,-0.172
0.457,-0.172
0.457,-0.2
0.457,-0.22
0.458,-0.208
0.458,-0.216
0.458,-0.244
0.458,-0.208
0.458,-0.216
0.459,-0.204
0.459,-0.196
0.459,-0.184
0.459,-0.164
0.459,-0.168
0.46,-0.172
0.46,-0.148
0.46,-0.168
0.46,-0.176
0.46,-0.2
0.461,-0.192
0.461,-0.176
0.461,-0.204
0.461,-0.204
0.461,-0.204
0.462,-0.212
0.462,-0.192
0.462,-0.2
0.462,-0.2
0.462,-0.204
0.463,-0.204
0.463,-0.196
0.463,-0.204
0.463,-0.192
0.463,-0.2
0.464,-0.208
0.464,-0.212
0.464,-0.224
0.464,-0.208
0.464,-0.196
0.465,-0.224
0.465,-0.22
0.465,-0.2
0.465,-0.192
0.465,-0.192
0.466,-0.176
0.466,-0.164
0.466,-0.152
0.466,-0.12
0.466,-0.168
0.467,-0.128
0.467,-0.112
0.467,-0.096
0.467,-0.08
0.467,-0.064
0.468,-0.068
0.468,-0.076
0.468,-0.06
0.468,-0.056
0.468,-0.06
0.469,-0.048
0.469,-0.06
0.469,-0.08
0.469,-0.076
0.469,-0.072
0.47,-0.092
0.47,-0.076
0.47,-0.092
0.47,-0.104
0.47,-0.104
0.471,-0.096
0.471,-0.116
0.471,-0.08
0.471,-0.084
0.471,-0.072
0.472,-0.068
0.472,-0.068
0.472,-0.092
0.472,-0.072
0.472,-0.056
0.473,-0.068
0.473,-0.064
0.473,-0.056
0.473,-0.052
0.473,-0.044
0.474,-0.04
0.474,-0.028
0.474,-0.02
0.474,0
0.474,0.028
0.475,0
0.475,0.016
0.475,0.02
0.475,0.04
0.475,0.028
0.476,0.04
0.476,0.008
0.476,0.036
0.476,0.012
0.476,0.004
0.477,-0.008
0.477,-0.012
0.477,-0.028
0.477,-0.028
0.477,-0.044
0.478,-0.064
0.478,-0.076
0.478,-0.076
0.478,-0.072
0.478,-0.1
0.479,-0.084
0.479,-0.068
0.479,-0.068
0.479,-0.056
0.479,-0.056
0.48,-0.024
0.48,0
0.48,0.008
0.48,0.008
0.48,0.04
0.481,0.04
0.481,0.04
0.481,0.048
0.481,0.052
0.481,0.048
0.482,0.056
0.482,0.012
0.482,0.012
0.482,0.004
0.482,-0.004
0.483,-0.032
0.483,-0.036
0.483,-0.056
0.483,-0.064
0.483,-0.06
0.484,-0.056
0.484,-0.088
0.484,-0.1
0.484,-0.068
0.484,-0.104
0.485,-0.076
0.485,-0.072
0.485,-0.064
0.485,-0.052
0.485,-0.056
0.486,-0.032
0.486,-0.012
0.486,-0.016
0.486,-0.016
0.486,-0.024
0.487,-0.008
0.487,-0.012
0.487,-0.04
0.487,-0.032
0.487,-0.06
0.488,-0.056
0.488,-0.06
0.488,-0.064
0.488,-0.08
0.488,-0.088
0.489,-0.108
0.489,-0.088
0.489,-0.092
0.489,-0.096
0.489,-0.108
0.49,-0.084
0.49,-0.08
0.49,-0.092
0.49,-0.088
0.49,-0.08
0.491,-0.096
0.491,-0.088
0.491,-0.1
0.491,-0.108
0.491,-0.104
0.492,-0.088
0.492,-0.104
0.492,-0.108
0.492,-0.12
0.492,-0.112
0.493,-0.1
0.493,-0.088
0.493,-0.096
0.493,-0.084
0.493,-0.064
0.494,-0.044
0.494,-0.032
0.494,-0.036
0.494,-0.024
0.494,-0.004
0.495,0.02
0.495,0.036
0.495,0.024
0.495,0.044
0.495,0.048
0.496,0.052
0.496,0.048
0.496,0.048
0.496,0.068
0.496,0.088
0.497,0.088
0.497,0.076
0.497,0.092
0.497,0.096
0.497,0.092
0.498,0.084
0.498,0.092
0.498,0.064
0.498,0.088
0.498,0.072
0.499,0.068
0.499,0.076
0.499,0.068
0.499,0.048
0.499,0.076
0.5,0.068
0.5,0.076
0.5,0.068
0.5,0.076
0.5,0.076
0.501,0.076
0.501,0.056
0.501,0.076
0.501,0.052
0.501,0.072
0.502,0.056
0.502,0.028
0.502,0.048
0.502,0.064
0.502,0.044
0.503,0.036
0.503,0.056
0.503,0.048
0.503,0.064
0.503,0.084
0.504,0.06
0.504,0.08
0.504,0.092
0.504,0.072
0.504,0.096
0.505,0.088
0.505,0.1
0.505,0.112
0.505,0.1
0.505,0.1
0.506,0.06
0.506,0.068
0.506,0.048
0.506,0.052
0.506,0.048
0.507,0.028
0.507,0.036
0.507,0.04
0.507,0.028
0.507,0.016
0.508,0.004
0.508,0.02
0.508,0.016
0.508,0.004
0.508,0.004
0.509,0.008
0.509,0.004
0.509,-0.012
0.509,-0.024
0.509,-0.004
0.51,-0.02
0.51,-0.02
0.51,-0.044
0.51,-0.036
0.51,-0.044
0.511,-0.072
0.511,-0.084
0.511,-0.084
0.511,-0.108
0.511,-0.092
0.512,-0.104
0.512,-0.116
0.512,-0.116
0.512,-0.1
0.512,-0.092
0.513,-0.084
0.513,-0.084
0.513,-0.08
0.513,-0.104
0.513,-0.06
0.514,-0.088
0.514,-0.088
0.514,-0.084
0.514,-0.08
0.514,-0.072
0.515,-0.076
0.515,-0.068
0.515,-0.076
0.515,-0.076
0.515,-0.06
0.516,-0.056
0.516,-0.036
0.516,-0.048
0.516,-0.032
0.516,-0.024
0.517,-0.04
0.517,-0.016
0.517,-0.016
0.517,0
0.517,-0.02
0.518,-0.012
0.518,0.004
0.518,-0.02
0.518,-0.024
0.518,-0.032
0.519,-0.032
0.519,-0.028
0.519,-0.036
0.519,-0.032
0.519,-0.008
0.52,-0.004
0.52,-0.036
0.52,-0.008
0.52,0.012
0.52,0.004
0.521,0.004
0.521,0.004
0.521,0
0.521,0.024
0.521,0.02
0.522,0.012
0.522,0.032
0.522,0.052
0.522,0.052
0.522,0.052
0.523,0.068
0.523,0.052
0.523,0.052
0.523,0.048
0.523,0.072
0.524,0.056
0.524,0.06
0.524,0.06
0.524,0.068
0.524,0.084
0.525,0.072
0.525,0.032
0.525,0.036
0.525,0.024
0.525,0.004
0.526,-0.004
0.526,-0.016
0.526,-0.012
0.526,0
0.526,-0.028
0.527,-0.012
0.527,-0.032
0.527,-0.016
0.527,-0.032
0.527,-0.04
0.528,-0.072
0.528,-0.044
0.528,-0.08
0.528,-0.064
0.528,-0.076
0.529,-0.06
0.529,-0.06
0.529,-0.052
0.529,-0.032
0.529,-0.024
0.53,-0.008
0.53,-0.024
0.53,-0.004
0.53,0.004
0.53,0.044
0.531,0.04
0.531,0.028
0.531,0.036
0.531,0.056
0.531,0.096
0.532,0.092
0.532,0.076
0.532,0.112
0.532,0.104
0.532,0.076
0.533,0.088
0.533,0.092
0.533,0.124
0.533,0.112
0.533,0.124
0.534,0.116
0.534,0.124
0.534,0.132
0.534,0.136
0.534,0.12
0.535,0.1
0.535,0.096
0.535,0.112
0.535,0.092
0.535,0.068
0.536,0.088
0.536,0.088
0.536,0.092
0.536,0.096
0.536,0.1
0.537,0.096
0.537,0.128
0.537,0.1
0.537,0.108
0.537,0.116
0.538,0.12
0.538,0.116
0.538,0.12
0.538,0.084
0.538,0.1
0.539,0.092
0.539,0.088
0.539,0.076
0.539,0.036
0.539,0.048
0.54,0.016
0.54,0.016
0.54,-0.004
0.54,-0.032
0.54,-0.044
0.541,-0.024
0.541,-0.036
0.541,-0.052
0.541,-0.056
0.541,-0.032
0.542,-0.04
0.542,-0.036
0.542,-0.052
0.542,-0.044
0.542,-0.056
0.543,-0.048
0.543,-0.072
0.543,-0.092
0.543,-0.088
0.543,-0.084
0.544,-0.108
0.544,-0.124
0.544,-0.1
0.544,-0.128
0.544,-0.104
0.545,-0.116
0.545,-0.132
0.545,-0.1
0.545,-0.096
0.545,-0.108
0.546,-0.088
0.546,-0.064
0.546,-0.048
0.546,-0.056
0.546,-0.032
0.547,-0.036
0.547,-0.02
0.547,-0.004
0.547,0.008
0.547,0.012
0.548,0.044
0.548,0.04
0.548,0.068
0.548,0.056
0.548,0.068
0.549,0.076
0.549,0.076
0.549,0.056
0.549,0.06
0.549,0.056
0.55,0.048
0.55,0.06
0.55,0.036
0.55,0.04
0.55,0.056
0.551,0.036
0.551,0.028
0.551,0.02
0.551,-0.012
0.551,-0.02
0.552,-0.032
0.552,-0.036
0.552,-0.04
0.552,-0.04
0.552,-0.044
0.553,-0.04
0.553,-0.056
0.553,-0.06
0.553,-0.052
0.553,-0.048
0.554,-0.068
0.554,-0.064
0.554,-0.036
0.554,-0.056
0.554,-0.06
0.555,-0.048
0.555,-0.036
0.555,-0.016
0.555,-0.016
0.555,-0.016
0.556,-0.012
0.556,-0.008
0.556,0
0.556,0.004
0.556,-0.012
0.557,0.012
0.557,0.02
0.557,0.012
0.557,0.016
0.557,0.008
0.558,0.02
0.558,0.044
0.558,0.052
0.558,0.056
0.558,0.064
0.559,0.084
0.559,0.112
0.559,0.1
0.559,0.108
0.559,0.136
0.56,0.128
0.56,0.116
0.56,0.132
0.56,0.124
0.56,0.16
0.561,0.156
0.561,0.144
0.561,0.132
0.561,0.148
0.561,0.136
0.562,0.112
0.562,0.104
0.562,0.092
0.562,0.112
0.562,0.12
0.563,0.096
0.563,0.1
0.563,0.124
0.563,0.14
0.563,0.124
0.564,0.116
0.564,0.1
0.564,0.092
0.564,0.08
0.564,0.06
0.565,0.052
0.565,0.052
0.565,0.044
0.565,0.032
0.565,0.024
0.566,0.016
0.566,0.02
0.566,0
0.566,0.036
0.566,0.008
0.567,0
0.567,-0.008
0.567,-0.012
0.567,-0.02
0.567,-0.02
0.568,-0.04
0.568,-0.016
0.568,-0.016
0.568,-0.016
0.568,-0.008
0.569,0.016
0.569,0.008
0.569,0.032
0.569,0.032
0.569,0.08
0.57,0.076
0.57,0.108
0.57,0.096
0.57,0.124
0.57,0.124
0.571,0.124
0.571,0.144
0.571,0.152
0.571,0.168
0.571,0.148
0.572,0.14
0.572,0.136
0.572,0.132
0.572,0.124
0.572,0.1
0.573,0.076
0.573,0.064
0.573,0.048
0.573,0.02
0.573,-0.008
0.574,-0.044
0.574,-0.024
0.574,-0.028
0.574,-0.06
0.574,-0.052
0.575,-0.056
0.575,-0.048
0.575,-0.048
0.575,-0.064
0.575,-0.056
0.576,-0.056
0.576,-0.068
0.576,-0.048
0.576,-0.06
0.576,-0.064
0.577,-0.076
0.577,-0.064
0.577,-0.084
0.577,-0.084
0.577,-0.092
0.578,-0.088
0.578,-0.092
0.578,-0.108
0.578,-0.116
0.578,-0.096
0.579,-0.112
0.579,-0.104
0.579,-0.116
0.579,-0.108
0.579,-0.1
0.58,-0.104
0.58,-0.076
0.58,-0.084
0.58,-0.068
0.58,-0.04
0.581,-0.04
0.581,-0.032
0.581,-0.024
0.581,-0.024
0.581,-0.024
0.582,-0.036
0.582,-0.048
0.582,-0.048
0.582,-0.036
0.582,-0.052
0.583,-0.068
0.583,-0.068
0.583,-0.072
0.583,-0.052
0.583,-0.048
0.584,-0.052
0.584,-0.032
0.584,-0.004
0.584,-0.004
0.584,0.016
0.585,0.032
0.585,0.064
0.585,0.088
0.585,0.108
0.585,0.108
0.586,0.108
0.586,0.12
0.586,0.124
0.586,0.108
0.586,0.128
0.587,0.108
0.587,0.112
0.587,0.092
0.587,0.076
0.587,0.064
0.588,0.08
0.588,0.084
0.588,0.064
0.588,0.072
0.588,0.1
0.589,0.1
0.589,0.072
0.589,0.072
0.589,0.072
0.589,0.084
0.59,0.08
0.59,0.076
0.59,0.08
0.59,0.08
0.59,0.096
0.591,0.064
0.591,0.084
0.591,0.064
0.591,0.06
0.591,0.076
0.592,0.052
0.592,0.036
0.592,0.052
0.592,0.04
0.592,0.036
0.593,0.02
0.593,0.032
0.593,0.028
0.593,0.024
0.593,0.028
0.594,0.028
0.594,0.008
0.594,0.004
0.594,-0.008
0.594,-0.024
0.595,-0.048
0.595,-0.064
0.595,-0.064
0.595,-0.08
0.595,-0.076
0.596,-0.092
0.596,-0.092
0.596,-0.092
0.596,-0.108
0.596,-0.096
0.597,-0.096
0.597,-0.088
0.597,-0.092
0.597,-0.108
0.597,-0.1
0.598,-0.088
0.598,-0.116
0.598,-0.108
0.598,-0.084
0.598,-0.088
0.599,-0.104
0.599,-0.064
0.599,-0.072
0.599,-0.064
0.599,-0.052
0.6,-0.056
0.6,-0.036
0.6,-0.02
0.6,-0.004
0.6,0.016
0.601,0.02
0.601,0.04
0.601,0.064
0.601,0.064
0.601,0.068
0.602,0.068
0.602,0.1
0.602,0.096
0.602,0.1
0.602,0.088
0.603,0.088
0.603,0.08
0.603,0.08
0.603,0.064
0.603,0.04
0.604,0.048
0.604,0.044
0.604,0.004
0.604,0.02
0.604,-0.012
0.605,-0.008
0.605,-0.012
0.605,-0.02
0.605,-0.004
0.605,-0.008
0.606,-0.024
0.606,-0.004
0.606,0.02
0.606,0.012
0.606,0.04
0.607,0.04
0.607,0.032
0.607,0.048
0.607,0.032
0.607,0.056
0.608,0.048
0.608,0.044
0.608,0.016
0.608,0.028
0.608,0.032
0.609,0.048
0.609,0.04
0.609,0.044
0.609,0.028
0.609,0.052
0.61,0.08
0.61,0.076
0.61,0.072
0.61,0.068
0.61,0.08
0.611,0.084
0.611,0.092
0.611,0.08
0.611,0.088
0.611,0.112
0.612,0.064
0.612,0.096
0.612,0.068
0.612,0.072
0.612,0.032
0.613,0.028
0.613,0.012
0.613,0.004
0.613,-0.016
0.613,0.016
0.614,0.008
0.614,0.008
0.614,0.012
0.614,0.012
0.614,-0.008
0.615,-0.012
0.615,-0.008
0.615,-0.032
0.615,-0.028
0.615,-0.02
0.616,-0.036
0.616,-0.048
0.616,-0.048
0.616,-0.052
0.616,-0.036
0.617,-0.036
0.617,-0.036
0.617,-0.04
0.617,-0.04
0.617,-0.032
0.618,-0.036
0.618,-0.036
0.618,-0.012
0.618,-0.004
0.618,0.012
0.619,0.008
0.619,0.032
0.619,0.048
0.619,0.036
0.619,0.044
0.62,0.052
0.62,0.076
0.62,0.104
0.62,0.116
0.62,0.12
0.621,0.144
0.621,0.132
0.621,0.136
0.621,0.16
0.621,0.136
0.622,0.152
0.622,0.108
0.622,0.124
0.622,0.136
0.622,0.12
0.623,0.116
0.623,0.132
0.623,0.136
0.623,0.136
0.623,0.12
0.624,0.112
0.624,0.124
0.624,0.112
0.624,0.1
0.624,0.1
0.625,0.076
0.625,0.064
0.625,0.064
0.625,0.06
0.625,0.064
0.626,0.072
0.626,0.06
0.626,0.052
0.626,0.068
0.626,0.056
0.627,0.036
0.627,0.032
0.627,0.024
0.627,0.02
0.627,0.024
0.628,0.04
0.628,0.044
0.628,0.048
0.628,0.044
0.628,0.04
0.629,0.04
0.629,0.032
0.629,0.036
0.629,0.04
0.629,0.064
0.63,0.052
0.63,0.04
0.63,0.056
0.63,0.028
0.63,0.02
0.631,-0.016
0.631,-0.028
0.631,-0.04
0.631,-0.044
0.631,-0.052
0.632,-0.068
0.632,-0.084
0.632,-0.068
0.632,-0.096
0.632,-0.092
0.633,-0.112
0.633,-0.14
0.633,-0.136
0.633,-0.148
0.633,-0.176
0.634,-0.16
0.634,-0.16
0.634,-0.172
0.634,-0.18
0.634,-0.176
0.635,-0.184
0.635,-0.172
0.635,-0.14
0.635,-0.148
0.635,-0.144
0.636,-0.144
0.636,-0.136
0.636,-0.12
0.636,-0.116
0.636,-0.116
0.637,-0.084
0.637,-0.06
0.637,-0.052
0.637,-0.032
0.637,-0.008
0.638,-0.008
0.638,0.004
0.638,0.028
0.638,0.02
0.638,0.032
0.639,0.056
0.639,0.048
0.639,0.04
0.639,0.048
0.639,0.06
0.64,0.048
0.64,0.048
0.64,0.06
0.64,0.056
0.64,0.06
0.641,0.056
0.641,0.04
0.641,0.06
0.641,0.044
0.641,0.056
0.642,0.036
0.642,0.04
0.642,0.028
0.642,0.036
0.642,0.024
0.643,0.028
0.643,0.032
0.643,0.032
0.643,0.004
0.643,0.016
0.644,0.016
0.644,0.04
0.644,0.052
0.644,0.06
0.644,0.056
0.645,0.056
0.645,0.08
0.645,0.08
0.645,0.052
0.645,0.056
0.646,0.048
0.646,0.052
0.646,0.056
0.646,0.036
0.646,0.04
0.647,0.048
0.647,0.016
0.647,0.008
0.647,0.02
0.647,0.02
0.648,0
0.648,-0.008
0.648,-0.012
0.648,-0.032
0.648,-0.016
0.649,-0.028
0.649,-0.044
0.649,-0.028
0.649,0
0.649,0.004
0.65,0.008
0.65,0.04
0.65,0.048
0.65,0.056
0.65,0.072
0.651,0.076
0.651,0.08
0.651,0.084
0.651,0.088
0.651,0.112
0.652,0.112
0.652,0.1
0.652,0.104
0.652,0.088
0.652,0.076
0.653,0.052
0.653,0.048
0.653,0.032
0.653,0.012
0.653,-0.012
0.654,-0.024
0.654,-0.044
0.654,-0.048
0.654,-0.06
0.654,-0.052
0.655,-0.06
0.655,-0.052
0.655,-0.04
0.655,-0.016
0.655,-0.02
0.656,-0.032
0.656,-0.02
0.656,0
0.656,-0.012
0.656,-0.016
0.657,-0.008
0.657,-0.016
0.657,0
0.657,-0.004
0.657,0
0.658,0.012
0.658,0.024
0.658,0.008
0.658,-0.004
0.658,0.004
0.659,0.012
0.659,-0.008
0.659,0.012
0.659,-0.016
0.659,-0.008
0.66,-0.012
0.66,-0.012
0.66,-0.048
0.66,-0.048
0.66,-0.032
0.661,-0.048
0.661,-0.06
0.661,-0.032
0.661,-0.052
0.661,-0.04
0.662,-0.032
0.662,-0.056
0.662,-0.048
0.662,-0.02
0.662,-0.024
0.663,-0.032
0.663,-0.028
0.663,-0.016
0.663,-0.008
0.663,-0.004
0.664,-0.004
0.664,0.008
0.664,0.024
0.664,0.016
0.664,0.004
0.665,0.028
0.665,0.024
0.665,0.016
0.665,0.02
0.665,0.02
0.666,0.016
0.666,0.032
0.666,0.04
0.666,0.032
0.666,0.052
0.667,0.072
0.667,0.072
0.667,0.08
0.667,0.08
0.667,0.068
0.668,0.056
0.668,0.068
0.668,0.052
0.668,0.068
0.668,0.048
0.669,0.044
0.669,0.036
0.669,0.068
0.669,0.044
0.669,0.06
0.67,0.08
0.67,0.072
0.67,0.08
0.67,0.092
0.67,0.096
0.671,0.068
0.671,0.076
0.671,0.068
0.671,0.072
0.671,0.072
0.672,0.072
0.672,0.08
0.672,0.088
0.672,0.096
0.672,0.108
0.673,0.12
0.673,0.152
0.673,0.188
0.673,0.176
0.673,0.2
0.674,0.208
0.674,0.208
0.674,0.204
0.674,0.192
0.674,0.192
0.675,0.196
0.675,0.184
0.675,0.164
0.675,0.132
0.675,0.116
0.676,0.108
0.676,0.096
0.676,0.08
0.676,0.068
0.676,0.068
0.677,0.048
0.677,0.04
0.677,0.02
0.677,0.004
0.677,0.012
0.678,-0.008
0.678,-0.02
0.678,-0.044
0.678,-0.032
0.678,-0.044
0.679,-0.072
0.679,-0.052
0.679,-0.092
0.679,-0.088
0.679,-0.096
0.68,-0.08
0.68,-0.116
0.68,-0.112
0.68,-0.108
0.68,-0.112
0.681,-0.08
0.681,-0.084
0.681,-0.068
0.681,-0.068
0.681,-0.052
0.682,-0.044
0.682,-0.048
0.682,-0.028
0.682,-0.04
0.682,-0.044
0.683,-0.048
0.683,-0.04
0.683,-0.052
0.683,-0.056
0.683,-0.072
0.684,-0.08
0.684,-0.088
0.684,-0.104
0.684,-0.092
0.684,-0.072
0.685,-0.092
0.685,-0.088
0.685,-0.076
0.685,-0.064
0.685,-0.04
0.686,-0.044
0.686,-0.044
0.686,-0.028
0.686,-0.02
0.686,-0.012
0.687,-0.012
0.687,-0.012
0.687,-0.02
0.687,-0.016
0.687,-0.016
0.688,-0.024
0.688,-0.032
0.688,-0.012
0.688,-0.012
0.688,-0.004
0.689,0.016
0.689,0.036
0.689,0.012
0.689,0.028
0.689,0.024
0.69,0.04
0.69,0.032
0.69,0.044
0.69,0.036
0.69,0.06
0.691,0.076
0.691,0.064
0.691,0.04
0.691,0.08
0.691,0.052
0.692,0.04
0.692,0.056
0.692,0.056
0.692,0.044
0.692,0.024
0.693,0.02
0.693,0.024
0.693,0.016
0.693,0.004
0.693,-0.02
0.694,-0.012
0.694,0
0.694,0
0.694,-0.016
0.694,0.012
0.695,0.012
0.695,0.02
0.695,0.032
0.695,0.068
0.695,0.056
0.696,0.072
0.696,0.08
0.696,0.1
0.696,0.104
0.696,0.1
0.697,0.132
0.697,0.136
0.697,0.136
0.697,0.148
0.697,0.168
0.698,0.172
0.698,0.172
0.698,0.184
0.698,0.176
0.698,0.164
0.699,0.184
0.699,0.16
0.699,0.128
0.699,0.14
0.699,0.124
0.7,0.12
0.7,0.12
0.7,0.128
0.7,0.116
0.7,0.128
0.701,0.128
0.701,0.132
0.701,0.116
0.701,0.136
0.701,0.116
0.702,0.1
0.702,0.088
0.702,0.084
0.702,0.06
0.702,0.056
0.703,0.044
0.703,0.044
0.703,0.024
0.703,0.04
0.703,0.02
0.704,0.032
0.704,0.016
0.704,0.02
0.704,0.028
0.704,0.008
0.705,0.016
0.705,0.008
0.705,0
0.705,-0.004
0.705,-0.016
0.706,-0.024
0.706,-0.06
0.706,-0.072
0.706,-0.08
0.706,-0.1
0.707,-0.096
0.707,-0.116
0.707,-0.132
0.707,-0.116
0.707,-0.124
0.708,-0.104
0.708,-0.14
0.708,-0.124
0.708,-0.144
0.708,-0.14
0.709,-0.144
0.709,-0.172
0.709,-0.216
0.709,-0.184
0.709,-0.204
0.71,-0.224
0.71,-0.216
0.71,-0.2
0.71,-0.212
0.71,-0.188
0.711,-0.172
0.711,-0.188
0.711,-0.14
0.711,-0.132
0.711,-0.12
0.712,-0.12
0.712,-0.08
0.712,-0.064
0.712,-0.056
0.712,-0.032
0.713,-0.032
0.713,-0.024
0.713,-0.004
0.713,-0.02
0.713,-0.032
0.714,-0.02
0.714,-0.036
0.714,-0.036
0.714,-0.036
0.714,-0.056
0.715,-0.04
0.715,-0.052
0.715,-0.06
0.715,-0.064
0.715,-0.036
0.716,-0.048
0.716,-0.036
0.716,-0.044
0.716,-0.008
0.716,-0.048
0.717,-0.012
0.717,-0.016
0.717,-0.008
0.717,0
0.717,-0.004
0.718,0
0.718,0.004
0.718,0.012
0.718,0.004
0.718,0.02
0.719,0.008
0.719,0
0.719,-0.004
0.719,0.016
0.719,-0.008
0.72,-0.024
0.72,-0.02
0.72,-0.024
0.72,-0.024
0.72,-0.028
0.721,-0.048
0.721,-0.016
0.721,-0.032
0.721,-0.036
0.721,-0.016
0.722,-0.028
0.722,-0.032
0.722,-0.012
0.722,-0.008
0.722,-0.004
0.723,0.008
0.723,0.032
0.723,0.044
0.723,0.036
0.723,0.044
0.724,0.056
0.724,0.06
0.724,0.064
0.724,0.072
0.724,0.036
0.725,0.06
0.725,0.048
0.725,0.052
0.725,0.04
0.725,0.06
0.726,0.056
0.726,0.068
0.726,0.072
0.726,0.044
0.726,0.056
0.727,0.072
0.727,0.072
0.727,0.064
0.727,0.044
0.727,0.072
0.728,0.076
0.728,0.064
0.728,0.056
0.728,0.068
0.728,0.052
0.729,0.044
0.729,0.052
0.729,0.064
0.729,0.068
0.729,0.084
0.73,0.088
0.73,0.104
0.73,0.1
0.73,0.084
0.73,0.076
0.731,0.06
0.731,0.056
0.731,0.024
0.731,-0.032
0.731,-0.02
0.732,-0.04
0.732,-0.068
0.732,-0.1
0.732,-0.104
0.732,-0.108
0.733,-0.116
0.733,-0.124
0.733,-0.14
0.733,-0.148
0.733,-0.156
0.734,-0.136
0.734,-0.136
0.734,-0.116
0.734,-0.12
0.734,-0.104
0.735,-0.084
0.735,-0.092
0.735,-0.072
0.735,-0.056
0.735,-0.036
0.736,-0.004
0.736,-0.02
0.736,0
0.736,0.008
0.736,0.02
0.737,0.028
0.737,0.02
0.737,0.028
0.737,0.06
0.737,0.052
0.738,0.064
0.738,0.052
0.738,0.064
0.738,0.08
0.738,0.064
0.739,0.068
0.739,0.1
0.739,0.072
0.739,0.08
0.739,0.068
0.74,0.064
0.74,0.04
0.74,0.04
0.74,0.044
0.74,0.024
0.741,0.024
0.741,0.024
0.741,0.032
0.741,0.036
0.741,0.028
0.742,0.016
0.742,0.02
0.742,0.032
0.742,0.056
0.742,0.052
0.743,0.056
0.743,0.052
0.743,0.064
0.743,0.068
0.743,0.064
0.744,0.044
0.744,0.064
0.744,0.096
0.744,0.088
0.744,0.092
0.745,0.088
0.745,0.104
0.745,0.08
0.745,0.084
0.745,0.084
0.746,0.076
0.746,0.068
0.746,0.056
0.746,0.064
0.746,0.08
0.747,0.06
0.747,0.072
0.747,0.084
0.747,0.096
0.747,0.084
0.748,0.088
0.748,0.08
0.748,0.096
0.748,0.096
0.748,0.108
0.749,0.104
0.749,0.088
0.749,0.112
0.749,0.112
0.749,0.096
0.75,0.112
0.75,0.096
0.75,0.128
0.75,0.116
0.75,0.12
0.751,0.088
0.751,0.108
0.751,0.112
0.751,0.092
0.751,0.116
0.752,0.096
0.752,0.104
0.752,0.108
0.752,0.084
0.752,0.088
0.753,0.092
0.753,0.1
0.753,0.072
0.753,0.072
0.753,0.056
0.754,0.044
0.754,0.06
0.754,0.06
0.754,0.056
0.754,0.084
0.755,0.068
0.755,0.092
0.755,0.108
0.755,0.12
0.755,0.132
0.756,0.152
0.756,0.164
0.756,0.164
0.756,0.164
0.756,0.168
0.757,0.18
0.757,0.184
0.757,0.184
0.757,0.152
0.757,0.164
0.758,0.16
0.758,0.156
0.758,0.148
0.758,0.152
0.758,0.132
0.759,0.132
0.759,0.132
0.759,0.112
0.759,0.14
0.759,0.14
0.76,0.136
0.76,0.14
0.76,0.136
0.76,0.128
0.76,0.112
0.761,0.136
0.761,0.104
0.761,0.132
0.761,0.16
0.761,0.172
0.762,0.156
0.762,0.156
0.762,0.164
0.762,0.156
0.762,0.144
0.763,0.16
0.763,0.164
0.763,0.156
0.763,0.18
0.763,0.16
0.764,0.184
0.764,0.204
0.764,0.188
0.764,0.196
0.764,0.244
0.765,0.252
0.765,0.26
0.765,0.3
0.765,0.32
0.765,0.336
0.766,0.356
0.766,0.376
0.766,0.4
0.766,0.428
0.766,0.44
0.767,0.46
0.767,0.468
0.767,0.468
0.767,0.48
0.767,0.484
0.768,0.496
0.768,0.508
0.768,0.516
0.768,0.532
0.768,0.52
0.769,0.548
0.769,0.52
0.769,0.552
0.769,0.548
0.769,0.552
0.77,0.544
0.77,0.56
0.77,0.548
0.77,0.552
0.77,0.54
0.771,0.516
0.771,0.532
0.771,0.528
0.771,0.5
0.771,0.508
0.772,0.484
0.772,0.504
0.772,0.484
0.772,0.484
0.772,0.464
0.773,0.46
0.773,0.464
0.773,0.472
0.773,0.46
0.773,0.452
0.774,0.472
0.774,0.464
0.774,0.44
0.774,0.476
0.774,0.452
0.775,0.468
0.775,0.44
0.775,0.456
0.775,0.448
0.775,0.412
0.776,0.428
0.776,0.408
0.776,0.408
0.776,0.4
0.776,0.376
0.777,0.4
0.777,0.412
0.777,0.424
0.777,0.416
0.777,0.432
0.778,0.456
0.778,0.452
0.778,0.46
0.778,0.468
0.778,0.5
0.779,0.504
0.779,0.5
0.779,0.508
0.779,0.504
0.779,0.512
0.78,0.508
0.78,0.492
0.78,0.512
0.78,0.512
0.78,0.5
0.781,0.476
0.781,0.48
0.781,0.48
0.781,0.472
0.781,0.428
0.782,0.408
0.782,0.384
0.782,0.344
0.782,0.328
0.782,0.296
0.783,0.296
0.783,0.256
0.783,0.24
0.783,0.224
0.783,0.224
0.784,0.212
0.784,0.172
0.784,0.18
0.784,0.14
0.784,0.132
0.785,0.108
0.785,0.096
0.785,0.072
0.785,0.044
0.785,0.04
0.786,0.016
0.786,0.004
0.786,-0.02
0.786,-0.032
0.786,-0.056
0.787,-0.052
0.787,-0.068
0.787,-0.104
0.787,-0.104
0.787,-0.12
0.788,-0.152
0.788,-0.164
0.788,-0.18
0.788,-0.196
0.788,-0.24
0.789,-0.26
0.789,-0.28
0.789,-0.276
0.789,-0.288
0.789,-0.324
0.79,-0.316
0.79,-0.356
0.79,-0.352
0.79,-0.348
0.79,-0.34
0.791,-0.384
0.791,-0.356
0.791,-0.36
0.791,-0.364
0.791,-0.384
0.792,-0.356
0.792,-0.376
0.792,-0.392
0.792,-0.392
0.792,-0.396
0.793,-0.416
0.793,-0.412
0.793,-0.408
0.793,-0.404
0.793,-0.416
0.794,-0.404
0.794,-0.416
0.794,-0.404
0.794,-0.408
0.794,-0.44
0.795,-0.428
0.795,-0.42
0.795,-0.472
0.795,-0.468
0.795,-0.452
0.796,-0.46
0.796,-0.46
0.796,-0.464
0.796,-0.476
0.796,-0.472
0.797,-0.428
0.797,-0.444
0.797,-0.44
0.797,-0.452
0.797,-0.444
0.798,-0.432
0.798,-0.428
0.798,-0.412
0.798,-0.416
0.798,-0.412
0.799,-0.412
0.799,-0.416
0.799,-0.404
0.799,-0.42
0.799,-0.436
0.8,-0.416
0.8,-0.416
0.8,-0.412
0.8,-0.416
0.8,-0.404
0.801,-0.4
0.801,-0.392
0.801,-0.388
0.801,-0.412
0.801,-0.384
0.802,-0.388
0.802,-0.4
0.802,-0.396
0.802,-0.4
0.802,-0.392
0.803,-0.376
0.803,-0.384
0.803,-0.4
0.803,-0.372
0.803,-0.38
0.804,-0.404
0.804,-0.4
0.804,-0.388
0.804,-0.424
0.804,-0.416
0.805,-0.412
0.805,-0.416
0.805,-0.42
0.805,-0.44
0.805,-0.436
0.806,-0.444
0.806,-0.428
0.806,-0.412
0.806,-0.408
0.806,-0.4
0.807,-0.392
0.807,-0.384
0.807,-0.368
0.807,-0.348
0.807,-0.332
0.808,-0.324
0.808,-0.308
0.808,-0.28
0.808,-0.252
0.808,-0.224
0.809,-0.24
0.809,-0.204
0.809,-0.208
0.809,-0.192
0.809,-0.172
0.81,-0.172
0.81,-0.16
0.81,-0.176
0.81,-0.144
0.81,-0.132
0.811,-0.136
0.811,-0.132
0.811,-0.12
0.811,-0.116
0.811,-0.124
0.812,-0.116
0.812,-0.116
0.812,-0.092
0.812,-0.08
0.812,-0.104
0.813,-0.084
0.813,-0.068
0.813,-0.076
0.813,-0.088
0.813,-0.06
0.814,-0.076
0.814,-0.076
0.814,-0.072
0.814,-0.096
0.814,-0.072
0.815,-0.048
0.815,-0.068
0.815,-0.048
0.815,-0.02
0.815,-0.012
0.816,-0.008
0.816,0
0.816,-0.024
0.816,0.004
0.816,-0.012
0.817,-0.02
0.817,-0.012
0.817,-0.016
0.817,0
0.817,0
0.818,-0.016
0.818,0
0.818,0
0.818,0.024
0.818,0.048
0.819,0.048
0.819,0.064
0.819,0.108
0.819,0.108
0.819,0.124
0.82,0.116
0.82,0.112
0.82,0.108
0.82,0.108
0.82,0.108
0.821,0.084
0.821,0.1
0.821,0.084
0.821,0.112
0.821,0.116
0.822,0.136
0.822,0.128
0.822,0.156
0.822,0.172
0.822,0.204
0.823,0.224
0.823,0.212
0.823,0.256
0.823,0.26
0.823,0.268
0.824,0.276
0.824,0.312
0.824,0.292
0.824,0.304
0.824,0.308
0.825,0.32
0.825,0.32
0.825,0.32
0.825,0.328
0.825,0.316
0.826,0.324
0.826,0.316
0.826,0.316
0.826,0.3
0.826,0.28
0.827,0.296
0.827,0.248
0.827,0.248
0.827,0.212
0.827,0.22
0.828,0.216
0.828,0.212
0.828,0.224
0.828,0.236
0.828,0.252
0.829,0.236
0.829,0.236
0.829,0.248
0.829,0.236
0.829,0.236
0.83,0.22
0.83,0.204
0.83,0.224
0.83,0.212
0.83,0.216
0.831,0.224
0.831,0.224
0.831,0.22
0.831,0.224
0.831,0.212
0.832,0.22
0.832,0.22
0.832,0.204
0.832,0.208
0.832,0.176
0.833,0.172
0.833,0.148
0.833,0.128
0.833,0.12
0.833,0.1
0.834,0.084
0.834,0.072
0.834,0.056
0.834,0.04
0.834,0.044
0.835,0.056
0.835,0.04
0.835,0.044
0.835,0.036
0.835,0.02
0.836,0.004
0.836,-0.004
0.836,0.004
0.836,0
0.836,-0.032
0.837,-0.036
0.837,-0.048
0.837,-0.056
0.837,-0.06
0.837,-0.076
0.838,-0.068
0.838,-0.084
0.838,-0.084
0.838,-0.072
0.838,-0.072
0.839,-0.044
0.839,-0.048
0.839,-0.048
0.839,-0.012
0.839,-0.024
0.84,-0.036
0.84,-0.032
0.84,-0.02
0.84,-0.036
0.84,-0.04
0.841,-0.032
0.841,-0.024
0.841,0
0.841,0.008
0.841,0.012
0.842,0.024
0.842,0.048
0.842,0.048
0.842,0.052
0.842,0.072
0.843,0.092
0.843,0.096
0.843,0.1
0.843,0.092
0.843,0.088
0.844,0.092
0.844,0.072
0.844,0.06
0.844,0.08
0.844,0.052
0.845,0.056
0.845,0.04
0.845,0.032
0.845,0
0.845,-0.008
0.846,0.004
0.846,-0.02
0.846,-0.02
0.846,-0.028
0.846,-0.056
0.847,-0.06
0.847,-0.068
0.847,-0.076
0.847,-0.072
0.847,-0.068
0.848,-0.056
0.848,-0.064
0.848,-0.016
0.848,-0.012
0.848,-0.012
0.849,0.004
0.849,0.02
0.849,0.024
0.849,0.032
0.849,0.04
0.85,0.024
0.85,0.044
0.85,0.048
0.85,0.04
0.85,0.06
0.851,0.048
0.851,0.06
0.851,0.076
0.851,0.084
0.851,0.112
0.852,0.152
0.852,0.156
0.852,0.164
0.852,0.168
0.852,0.172
0.853,0.192
0.853,0.184
0.853,0.184
0.853,0.192
0.853,0.18
0.854,0.172
0.854,0.152
0.854,0.144
0.854,0.148
0.854,0.144
0.855,0.136
0.855,0.14
0.855,0.116
0.855,0.112
0.855,0.116
0.856,0.072
0.856,0.088
0.856,0.064
0.856,0.052
0.856,0.036
0.857,0.032
0.857,0.016
0.857,-0.012
0.857,-0.024
0.857,-0.012
0.858,-0.02
0.858,-0.04
0.858,-0.024
0.858,0.004
0.858,0.008
0.859,0.012
0.859,0.004
0.859,0.024
0.859,0.048
0.859,0.048
0.86,0.056
0.86,0.06
0.86,0.076
0.86,0.068
0.86,0.08
0.861,0.076
0.861,0.068
0.861,0.092
0.861,0.108
0.861,0.12
0.862,0.108
0.862,0.124
0.862,0.12
0.862,0.116
0.862,0.14
0.863,0.136
0.863,0.16
0.863,0.168
0.863,0.136
0.863,0.108
0.864,0.096
0.864,0.076
0.864,0.092
0.864,0.072
0.864,0.044
0.865,0.044
0.865,0.02
0.865,0.016
0.865,-0.004
0.865,0.008
0.866,-0.02
0.866,-0.004
0.866,-0.024
0.866,-0.048
0.866,-0.028
0.867,-0.052
0.867,-0.056
0.867,-0.052
0.867,-0.024
0.867,-0.04
0.868,-0.052
0.868,-0.06
0.868,-0.052
0.868,-0.056
0.868,-0.056
0.869,-0.052
0.869,-0.052
0.869,-0.044
0.869,-0.04
0.869,-0.06
0.87,-0.06
0.87,-0.036
0.87,-0.032
0.87,-0.032
0.87,-0.016
0.871,-0.016
0.871,-0.008
0.871,0
0.871,-0.02
0.871,0.012
0.872,0.012
0.872,0.016
0.872,0.004
0.872,0.012
0.872,0.004
0.873,0.02
0.873,0.004
0.873,0.036
0.873,0.004
0.873,0.008
0.874,0
0.874,0.008
0.874,-0.008
0.874,-0.04
0.874,-0.04
0.875,-0.016
0.875,-0.028
0.875,-0.04
0.875,-0.036
0.875,-0.008
0.876,-0.008
0.876,-0.004
0.876,0.004
0.876,0.016
0.876,0.012
0.877,0.04
0.877,0.044
0.877,0.04
0.877,0.068
0.877,0.056
0.878,0.08
0.878,0.088
0.878,0.112
0.878,0.152
0.878,0.16
0.879,0.204
0.879,0.232
0.879,0.248
0.879,0.26
0.879,0.252
0.88,0.252
0.88,0.244
0.88,0.248
0.88,0.236
0.88,0.228
0.881,0.212
0.881,0.212
0.881,0.2
0.881,0.188
0.881,0.164
0.882,0.156
0.882,0.128
0.882,0.144
0.882,0.112
0.882,0.1
0.883,0.108
0.883,0.1
0.883,0.08
0.883,0.072
0.883,0.064
0.884,0.064
0.884,0.056
0.884,0.048
0.884,0.036
0.884,0.032
0.885,0.02
0.885,-0.004
0.885,0
0.885,0
0.885,0
0.886,-0.004
0.886,0.004
0.886,-0.02
0.886,-0.024
0.886,0.012
0.887,-0.004
0.887,-0.004
0.887,0
0.887,0
