-1.00E+00,-0.076
-1.00E+00,-0.08
-1.00E+00,-0.068
-9.99E-01,-0.048
-9.99E-01,-0.052
-9.99E-01,-0.052
-9.99E-01,-0.044
-9.99E-01,-0.052
-9.98E-01,-0.056
-9.98E-01,-0.056
-9.98E-01,-0.044
-9.98E-01,-0.044
-9.98E-01,-0.028
-9.97E-01,-0.02
-9.97E-01,-0.036
-9.97E-01,-0.008
-9.97E-01,-0.004
-9.97E-01,0.012
-9.96E-01,0.008
-9.96E-01,0.012
-9.96E-01,0.032
-9.96E-01,0.04
-9.96E-01,0.036
-9.95E-01,0.044
-9.95E-01,0.04
-9.95E-01,0.048
-9.95E-01,0.052
-9.95E-01,0.072
-9.94E-01,0.084
-9.94E-01,0.068
-9.94E-01,0.076
-9.94E-01,0.088
-9.94E-01,0.088
-9.93E-01,0.088
-9.93E-01,0.096
-9.93E-01,0.096
-9.93E-01,0.104
-9.93E-01,0.1
-9.92E-01,0.096
-9.92E-01,0.116
-9.92E-01,0.124
-9.92E-01,0.128
-9.92E-01,0.12
-9.91E-01,0.108
-9.91E-01,0.124
-9.91E-01,0.112
-9.91E-01,0.096
-9.91E-01,0.108
-9.90E-01,0.112
-9.90E-01,0.104
-9.90E-01,0.112
-9.90E-01,0.1
-9.90E-01,0.1
-9.89E-01,0.104
-9.89E-01,0.088
-9.89E-01,0.068
-9.89E-01,0.072
-9.89E-01,0.064
-9.88E-01,0.072
-9.88E-01,0.06
-9.88E-01,0.044
-9.88E-01,0.048
-9.88E-01,0.032
-9.87E-01,-0.008
-9.87E-01,-0.012
-9.87E-01,-0.032
-9.87E-01,-0.048
-9.87E-01,-0.08
-9.86E-01,-0.1
-9.86E-01,-0.124
-9.86E-01,-0.156
-9.86E-01,-0.184
-9.86E-01,-0.188
-9.85E-01,-0.216
-9.85E-01,-0.22
-9.85E-01,-0.228
-9.85E-01,-0.232
-9.85E-01,-0.232
-9.84E-01,-0.232
-9.84E-01,-0.232
-9.84E-01,-0.216
-9.84E-01,-0.204
-9.84E-01,-0.204
-9.83E-01,-0.18
-9.83E-01,-0.148
-9.83E-01,-0.144
-9.83E-01,-0.12
-9.83E-01,-0.104
-9.82E-01,-0.092
-9.82E-01,-0.052
-9.82E-01,-0.032
-9.82E-01,-0.02
-9.82E-01,0.004
-9.81E-01,0.024
-9.81E-01,0.024
-9.81E-01,0.036
-9.81E-01,0.032
-9.81E-01,0.04
-9.80E-01,0.048
-9.80E-01,0.028
-9.80E-01,0.016
-9.80E-01,0.024
-9.80E-01,0.02
-9.79E-01,0.012
-9.79E-01,0.004
-9.79E-01,0
-9.79E-01,-0.004
-9.79E-01,0
-9.78E-01,0.004
-9.78E-01,0.024
-9.78E-01,0.04
-9.78E-01,0.056
-9.78E-01,0.068
-9.77E-01,0.056
-9.77E-01,0.092
-9.77E-01,0.112
-9.77E-01,0.108
-9.77E-01,0.116
-9.76E-01,0.136
-9.76E-01,0.112
-9.76E-01,0.12
-9.76E-01,0.12
-9.76E-01,0.116
-9.75E-01,0.112
-9.75E-01,0.112
-9.75E-01,0.112
-9.75E-01,0.128
-9.75E-01,0.12
-9.74E-01,0.132
-9.74E-01,0.14
-9.74E-01,0.152
-9.74E-01,0.16
-9.74E-01,0.16
-9.73E-01,0.148
-9.73E-01,0.156
-9.73E-01,0.148
-9.73E-01,0.144
-9.73E-01,0.132
-9.72E-01,0.132
-9.72E-01,0.116
-9.72E-01,0.128
-9.72E-01,0.108
-9.72E-01,0.112
-9.71E-01,0.112
-9.71E-01,0.104
-9.71E-01,0.088
-9.71E-01,0.084
-9.71E-01,0.088
-9.70E-01,0.092
-9.70E-01,0.088
-9.70E-01,0.072
-9.70E-01,0.076
-9.70E-01,0.064
-9.69E-01,0.044
-9.69E-01,0.028
-9.69E-01,0.012
-9.69E-01,-0.016
-9.69E-01,-0.04
-9.68E-01,-0.064
-9.68E-01,-0.092
-9.68E-01,-0.104
-9.68E-01,-0.12
-9.68E-01,-0.14
-9.67E-01,-0.156
-9.67E-01,-0.164
-9.67E-01,-0.172
-9.67E-01,-0.176
-9.67E-01,-0.176
-9.66E-01,-0.18
-9.66E-01,-0.192
-9.66E-01,-0.196
-9.66E-01,-0.2
-9.66E-01,-0.212
-9.65E-01,-0.2
-9.65E-01,-0.204
-9.65E-01,-0.192
-9.65E-01,-0.184
-9.65E-01,-0.18
-9.64E-01,-0.152
-9.64E-01,-0.136
-9.64E-01,-0.112
-9.64E-01,-0.1
-9.64E-01,-0.108
-9.63E-01,-0.084
-9.63E-01,-0.064
-9.63E-01,-0.056
-9.63E-01,-0.028
-9.63E-01,-0.004
-9.62E-01,0.016
-9.62E-01,0.036
-9.62E-01,0.064
-9.62E-01,0.088
-9.62E-01,0.112
-9.61E-01,0.112
-9.61E-01,0.096
-9.61E-01,0.108
-9.61E-01,0.112
-9.61E-01,0.104
-9.60E-01,0.108
-9.60E-01,0.104
-9.60E-01,0.12
-9.60E-01,0.12
-9.60E-01,0.112
-9.59E-01,0.116
-9.59E-01,0.112
-9.59E-01,0.108
-9.59E-01,0.112
-9.59E-01,0.104
-9.58E-01,0.104
-9.58E-01,0.112
-9.58E-01,0.1
-9.58E-01,0.104
-9.58E-01,0.096
-9.57E-01,0.084
-9.57E-01,0.076
-9.57E-01,0.076
-9.57E-01,0.072
-9.57E-01,0.08
-9.56E-01,0.052
-9.56E-01,0.02
-9.56E-01,0.012
-9.56E-01,0
-9.56E-01,-0.032
-9.55E-01,-0.028
-9.55E-01,-0.06
-9.55E-01,-0.068
-9.55E-01,-0.064
-9.55E-01,-0.096
-9.54E-01,-0.108
-9.54E-01,-0.096
-9.54E-01,-0.112
-9.54E-01,-0.124
-9.54E-01,-0.136
-9.53E-01,-0.136
-9.53E-01,-0.144
-9.53E-01,-0.16
-9.53E-01,-0.172
-9.53E-01,-0.16
-9.52E-01,-0.16
-9.52E-01,-0.16
-9.52E-01,-0.176
-9.52E-01,-0.164
-9.52E-01,-0.14
-9.51E-01,-0.136
-9.51E-01,-0.124
-9.51E-01,-0.1
-9.51E-01,-0.084
-9.51E-01,-0.076
-9.50E-01,-0.064
-9.50E-01,-0.064
-9.50E-01,-0.056
-9.50E-01,-0.032
-9.50E-01,-0.036
-9.49E-01,-0.012
-9.49E-01,0
-9.49E-01,0.008
-9.49E-01,0.012
-9.49E-01,0.044
-9.48E-01,0.028
-9.48E-01,0.024
-9.48E-01,0.04
-9.48E-01,0.048
-9.48E-01,0.044
-9.47E-01,0.056
-9.47E-01,0.048
-9.47E-01,0.044
-9.47E-01,0.044
-9.47E-01,0.052
-9.46E-01,0.028
-9.46E-01,0.032
-9.46E-01,0.052
-9.46E-01,0.04
-9.46E-01,0.032
-9.45E-01,0.036
-9.45E-01,0.028
-9.45E-01,0.052
-9.45E-01,0.052
-9.45E-01,0.048
-9.44E-01,0.076
-9.44E-01,0.096
-9.44E-01,0.088
-9.44E-01,0.076
-9.44E-01,0.096
-9.43E-01,0.116
-9.43E-01,0.112
-9.43E-01,0.116
-9.43E-01,0.112
-9.43E-01,0.12
-9.42E-01,0.12
-9.42E-01,0.124
-9.42E-01,0.104
-9.42E-01,0.104
-9.42E-01,0.112
-9.41E-01,0.096
-9.41E-01,0.096
-9.41E-01,0.104
-9.41E-01,0.096
-9.41E-01,0.072
-9.40E-01,0.08
-9.40E-01,0.084
-9.40E-01,0.08
-9.40E-01,0.056
-9.40E-01,0.068
-9.39E-01,0.052
-9.39E-01,0.04
-9.39E-01,0.02
-9.39E-01,0.016
-9.39E-01,0.02
-9.38E-01,0.016
-9.38E-01,0
-9.38E-01,-0.004
-9.38E-01,0.008
-9.38E-01,0.004
-9.37E-01,0.008
-9.37E-01,-0.016
-9.37E-01,-0.004
-9.37E-01,-0.004
-9.37E-01,0.004
-9.36E-01,-0.02
-9.36E-01,-0.004
-9.36E-01,-0.024
-9.36E-01,-0.032
-9.36E-01,-0.048
-9.35E-01,-0.056
-9.35E-01,-0.072
-9.35E-01,-0.084
-9.35E-01,-0.104
-9.35E-01,-0.116
-9.34E-01,-0.116
-9.34E-01,-0.108
-9.34E-01,-0.108
-9.34E-01,-0.108
-9.34E-01,-0.096
-9.33E-01,-0.124
-9.33E-01,-0.092
-9.33E-01,-0.104
-9.33E-01,-0.088
-9.33E-01,-0.084
-9.32E-01,-0.076
-9.32E-01,-0.084
-9.32E-01,-0.068
-9.32E-01,-0.068
-9.32E-01,-0.064
-9.31E-01,-0.072
-9.31E-01,-0.072
-9.31E-01,-0.06
-9.31E-01,-0.048
-9.31E-01,-0.036
-9.30E-01,-0.02
-9.30E-01,-0.012
-9.30E-01,0.012
-9.30E-01,0.016
-9.30E-01,0.032
-9.29E-01,0.044
-9.29E-01,0.04
-9.29E-01,0.056
-9.29E-01,0.068
-9.29E-01,0.056
-9.28E-01,0.06
-9.28E-01,0.064
-9.28E-01,0.072
-9.28E-01,0.068
-9.28E-01,0.068
-9.27E-01,0.06
-9.27E-01,0.048
-9.27E-01,0.052
-9.27E-01,0.04
-9.27E-01,0.024
-9.26E-01,0.024
-9.26E-01,0.02
-9.26E-01,0.028
-9.26E-01,0.044
-9.26E-01,0.036
-9.25E-01,0.052
-9.25E-01,0.068
-9.25E-01,0.068
-9.25E-01,0.08
-9.25E-01,0.08
-9.24E-01,0.076
-9.24E-01,0.104
-9.24E-01,0.1
-9.24E-01,0.108
-9.24E-01,0.096
-9.23E-01,0.092
-9.23E-01,0.096
-9.23E-01,0.1
-9.23E-01,0.072
-9.23E-01,0.076
-9.22E-01,0.092
-9.22E-01,0.088
-9.22E-01,0.08
-9.22E-01,0.064
-9.22E-01,0.048
-9.21E-01,0.06
-9.21E-01,0.056
-9.21E-01,0.048
-9.21E-01,0.04
-9.21E-01,0.036
-9.20E-01,0.052
-9.20E-01,0.036
-9.20E-01,0.028
-9.20E-01,0.036
-9.20E-01,0.048
-9.19E-01,0.036
-9.19E-01,0.028
-9.19E-01,0.04
-9.19E-01,0.048
-9.19E-01,0.036
-9.18E-01,0.044
-9.18E-01,0.032
-9.18E-01,0.032
-9.18E-01,0.024
-9.18E-01,0
-9.17E-01,-0.012
-9.17E-01,-0.02
-9.17E-01,-0.012
-9.17E-01,-0.016
-9.17E-01,-0.032
-9.16E-01,-0.028
-9.16E-01,-0.04
-9.16E-01,-0.04
-9.16E-01,-0.064
-9.16E-01,-0.04
-9.15E-01,-0.044
-9.15E-01,-0.036
-9.15E-01,-0.064
-9.15E-01,-0.056
-9.15E-01,-0.044
-9.14E-01,-0.048
-9.14E-01,-0.056
-9.14E-01,-0.032
-9.14E-01,-0.036
-9.14E-01,-0.012
-9.13E-01,0
-9.13E-01,0.016
-9.13E-01,0.032
-9.13E-01,0.012
-9.13E-01,0.04
-9.12E-01,0.04
-9.12E-01,0.04
-9.12E-01,0.06
-9.12E-01,0.064
-9.12E-01,0.064
-9.11E-01,0.108
-9.11E-01,0.1
-9.11E-01,0.104
-9.11E-01,0.128
-9.11E-01,0.152
-9.10E-01,0.14
-9.10E-01,0.152
-9.10E-01,0.16
-9.10E-01,0.18
-9.10E-01,0.18
-9.09E-01,0.18
-9.09E-01,0.172
-9.09E-01,0.172
-9.09E-01,0.184
-9.09E-01,0.184
-9.08E-01,0.188
-9.08E-01,0.196
-9.08E-01,0.184
-9.08E-01,0.2
-9.08E-01,0.208
-9.07E-01,0.212
-9.07E-01,0.188
-9.07E-01,0.2
-9.07E-01,0.192
-9.07E-01,0.192
-9.06E-01,0.164
-9.06E-01,0.148
-9.06E-01,0.152
-9.06E-01,0.124
-9.06E-01,0.104
-9.05E-01,0.08
-9.05E-01,0.088
-9.05E-01,0.1
-9.05E-01,0.092
-9.05E-01,0.096
-9.04E-01,0.088
-9.04E-01,0.088
-9.04E-01,0.096
-9.04E-01,0.104
-9.04E-01,0.076
-9.03E-01,0.064
-9.03E-01,0.056
-9.03E-01,0.024
-9.03E-01,0.004
-9.03E-01,-0.008
-9.02E-01,-0.016
-9.02E-01,-0.036
-9.02E-01,-0.028
-9.02E-01,-0.072
-9.02E-01,-0.08
-9.01E-01,-0.068
-9.01E-01,-0.1
-9.01E-01,-0.132
-9.01E-01,-0.136
-9.01E-01,-0.156
-9.00E-01,-0.172
-9.00E-01,-0.18
-9.00E-01,-0.192
-9.00E-01,-0.208
-9.00E-01,-0.224
-8.99E-01,-0.232
-8.99E-01,-0.252
-8.99E-01,-0.252
-8.99E-01,-0.268
-8.99E-01,-0.28
-8.98E-01,-0.26
-8.98E-01,-0.276
-8.98E-01,-0.256
-8.98E-01,-0.248
-8.98E-01,-0.248
-8.97E-01,-0.212
-8.97E-01,-0.216
-8.97E-01,-0.204
-8.97E-01,-0.196
-8.97E-01,-0.172
-8.96E-01,-0.164
-8.96E-01,-0.136
-8.96E-01,-0.136
-8.96E-01,-0.112
-8.96E-01,-0.112
-8.95E-01,-0.084
-8.95E-01,-0.092
-8.95E-01,-0.06
-8.95E-01,-0.056
-8.95E-01,-0.048
-8.94E-01,-0.048
-8.94E-01,-0.024
-8.94E-01,0.004
-8.94E-01,0.008
-8.94E-01,0.016
-8.93E-01,0.072
-8.93E-01,0.076
-8.93E-01,0.08
-8.93E-01,0.096
-8.93E-01,0.104
-8.92E-01,0.112
-8.92E-01,0.124
-8.92E-01,0.116
-8.92E-01,0.132
-8.92E-01,0.132
-8.91E-01,0.132
-8.91E-01,0.144
-8.91E-01,0.144
-8.91E-01,0.152
-8.91E-01,0.152
-8.90E-01,0.128
-8.90E-01,0.136
-8.90E-01,0.128
-8.90E-01,0.12
-8.90E-01,0.112
-8.89E-01,0.116
-8.89E-01,0.096
-8.89E-01,0.092
-8.89E-01,0.076
-8.89E-01,0.048
-8.88E-01,0.052
-8.88E-01,0.036
-8.88E-01,0.008
-8.88E-01,0.012
-8.88E-01,0.016
-8.87E-01,-0.004
-8.87E-01,0
-8.87E-01,-0.012
-8.87E-01,-0.008
-8.87E-01,-0.016
-8.86E-01,-0.02
-8.86E-01,-0.004
-8.86E-01,-0.012
-8.86E-01,-0.024
-8.86E-01,-0.044
-8.85E-01,-0.036
-8.85E-01,-0.032
-8.85E-01,-0.056
-8.85E-01,-0.072
-8.85E-01,-0.048
-8.84E-01,-0.064
-8.84E-01,-0.064
-8.84E-01,-0.068
-8.84E-01,-0.104
-8.84E-01,-0.084
-8.83E-01,-0.076
-8.83E-01,-0.092
-8.83E-01,-0.088
-8.83E-01,-0.104
-8.83E-01,-0.076
-8.82E-01,-0.072
-8.82E-01,-0.052
-8.82E-01,-0.06
-8.82E-01,-0.036
-8.82E-01,-0.04
-8.81E-01,-0.04
-8.81E-01,-0.048
-8.81E-01,-0.044
-8.81E-01,-0.032
-8.81E-01,-0.02
-8.80E-01,-0.028
-8.80E-01,-0.02
-8.80E-01,-0.016
-8.80E-01,-0.016
-8.80E-01,-0.004
-8.79E-01,-0.012
-8.79E-01,-0.024
-8.79E-01,-0.008
-8.79E-01,-0.02
-8.79E-01,0
-8.78E-01,0.008
-8.78E-01,-0.004
-8.78E-01,0
-8.78E-01,0.02
-8.78E-01,0.016
-8.77E-01,0.04
-8.77E-01,0.044
-8.77E-01,0.064
-8.77E-01,0.096
-8.77E-01,0.076
-8.76E-01,0.092
-8.76E-01,0.104
-8.76E-01,0.104
-8.76E-01,0.112
-8.76E-01,0.088
-8.75E-01,0.076
-8.75E-01,0.092
-8.75E-01,0.06
-8.75E-01,0.06
-8.75E-01,0.044
-8.74E-01,0.028
-8.74E-01,0.016
-8.74E-01,0.016
-8.74E-01,0.008
-8.74E-01,-0.004
-8.73E-01,-0.012
-8.73E-01,-0.024
-8.73E-01,-0.004
-8.73E-01,0
-8.73E-01,-0.008
-8.72E-01,0.008
-8.72E-01,0.012
-8.72E-01,0.008
-8.72E-01,0.008
-8.72E-01,0.02
-8.71E-01,0.024
-8.71E-01,0.032
-8.71E-01,0.04
-8.71E-01,0.04
-8.71E-01,0.016
-8.70E-01,0.028
-8.70E-01,0.008
-8.70E-01,0
-8.70E-01,-0.012
-8.70E-01,0.004
-8.69E-01,-0.004
-8.69E-01,-0.024
-8.69E-01,-0.028
-8.69E-01,-0.04
-8.69E-01,-0.044
-8.68E-01,-0.06
-8.68E-01,-0.064
-8.68E-01,-0.052
-8.68E-01,-0.044
-8.68E-01,-0.072
-8.67E-01,-0.076
-8.67E-01,-0.088
-8.67E-01,-0.104
-8.67E-01,-0.112
-8.67E-01,-0.136
-8.66E-01,-0.124
-8.66E-01,-0.124
-8.66E-01,-0.108
-8.66E-01,-0.132
-8.66E-01,-0.124
-8.65E-01,-0.112
-8.65E-01,-0.104
-8.65E-01,-0.104
-8.65E-01,-0.104
-8.65E-01,-0.096
-8.64E-01,-0.06
-8.64E-01,-0.072
-8.64E-01,-0.064
-8.64E-01,-0.052
-8.64E-01,-0.032
-8.63E-01,-0.028
-8.63E-01,-0.024
-8.63E-01,0.004
-8.63E-01,0.012
-8.63E-01,0.012
-8.62E-01,0.024
-8.62E-01,0.02
-8.62E-01,0.032
-8.62E-01,0.044
-8.62E-01,0.028
-8.61E-01,0.028
-8.61E-01,0.024
-8.61E-01,0.016
-8.61E-01,0.016
-8.61E-01,0.016
-8.60E-01,0.04
-8.60E-01,0.028
-8.60E-01,0.04
-8.60E-01,0.056
-8.60E-01,0.052
-8.59E-01,0.048
-8.59E-01,0.064
-8.59E-01,0.052
-8.59E-01,0.052
-8.59E-01,0.048
-8.58E-01,0.052
-8.58E-01,0.032
-8.58E-01,0.044
-8.58E-01,0.048
-8.58E-01,0.06
-8.57E-01,0.06
-8.57E-01,0.072
-8.57E-01,0.068
-8.57E-01,0.068
-8.57E-01,0.08
-8.56E-01,0.076
-8.56E-01,0.064
-8.56E-01,0.076
-8.56E-01,0.06
-8.56E-01,0.08
-8.55E-01,0.08
-8.55E-01,0.092
-8.55E-01,0.096
-8.55E-01,0.096
-8.55E-01,0.096
-8.54E-01,0.08
-8.54E-01,0.076
-8.54E-01,0.06
-8.54E-01,0.06
-8.54E-01,0.048
-8.53E-01,0.012
-8.53E-01,0.016
-8.53E-01,-0.008
-8.53E-01,-0.032
-8.53E-01,-0.04
-8.52E-01,-0.04
-8.52E-01,-0.072
-8.52E-01,-0.092
-8.52E-01,-0.1
-8.52E-01,-0.112
-8.51E-01,-0.108
-8.51E-01,-0.112
-8.51E-01,-0.124
-8.51E-01,-0.124
-8.51E-01,-0.092
-8.50E-01,-0.108
-8.50E-01,-0.108
-8.50E-01,-0.096
-8.50E-01,-0.096
-8.50E-01,-0.088
-8.49E-01,-0.088
-8.49E-01,-0.076
-8.49E-01,-0.076
-8.49E-01,-0.06
-8.49E-01,-0.064
-8.48E-01,-0.068
-8.48E-01,-0.06
-8.48E-01,-0.048
-8.48E-01,-0.044
-8.48E-01,-0.048
-8.47E-01,-0.036
-8.47E-01,-0.028
-8.47E-01,-0.008
-8.47E-01,-0.02
-8.47E-01,-0.024
-8.46E-01,-0.028
-8.46E-01,-0.032
-8.46E-01,-0.008
-8.46E-01,-0.016
-8.46E-01,-0.004
-8.45E-01,0.012
-8.45E-01,0.008
-8.45E-01,0.044
-8.45E-01,0.044
-8.45E-01,0.052
-8.44E-01,0.072
-8.44E-01,0.072
-8.44E-01,0.092
-8.44E-01,0.092
-8.44E-01,0.1
-8.43E-01,0.104
-8.43E-01,0.116
-8.43E-01,0.116
-8.43E-01,0.104
-8.43E-01,0.112
-8.42E-01,0.116
-8.42E-01,0.128
-8.42E-01,0.104
-8.42E-01,0.112
-8.42E-01,0.12
-8.41E-01,0.12
-8.41E-01,0.128
-8.41E-01,0.128
-8.41E-01,0.124
-8.41E-01,0.148
-8.40E-01,0.156
-8.40E-01,0.148
-8.40E-01,0.152
-8.40E-01,0.144
-8.40E-01,0.128
-8.39E-01,0.148
-8.39E-01,0.116
-8.39E-01,0.096
-8.39E-01,0.1
-8.39E-01,0.096
-8.38E-01,0.076
-8.38E-01,0.052
-8.38E-01,0.056
-8.38E-01,0.04
-8.38E-01,0.036
-8.37E-01,0.032
-8.37E-01,0.028
-8.37E-01,0.036
-8.37E-01,0.016
-8.37E-01,0.008
-8.36E-01,0
-8.36E-01,0.004
-8.36E-01,-0.008
-8.36E-01,-0.016
-8.36E-01,-0.032
-8.35E-01,-0.044
-8.35E-01,-0.044
-8.35E-01,-0.036
-8.35E-01,-0.084
-8.35E-01,-0.084
-8.34E-01,-0.092
-8.34E-01,-0.088
-8.34E-01,-0.112
-8.34E-01,-0.12
-8.34E-01,-0.132
-8.33E-01,-0.116
-8.33E-01,-0.128
-8.33E-01,-0.152
-8.33E-01,-0.152
-8.33E-01,-0.152
-8.32E-01,-0.144
-8.32E-01,-0.168
-8.32E-01,-0.172
-8.32E-01,-0.16
-8.32E-01,-0.148
-8.31E-01,-0.148
-8.31E-01,-0.152
-8.31E-01,-0.148
-8.31E-01,-0.136
-8.31E-01,-0.128
-8.30E-01,-0.116
-8.30E-01,-0.096
-8.30E-01,-0.092
-8.30E-01,-0.1
-8.30E-01,-0.088
-8.29E-01,-0.092
-8.29E-01,-0.088
-8.29E-01,-0.076
-8.29E-01,-0.068
-8.29E-01,-0.052
-8.28E-01,-0.028
-8.28E-01,-0.024
-8.28E-01,-0.02
-8.28E-01,-0.016
-8.28E-01,0
-8.27E-01,0.004
-8.27E-01,0.004
-8.27E-01,-0.004
-8.27E-01,0.008
-8.27E-01,0
-8.26E-01,0
-8.26E-01,0
-8.26E-01,-0.024
-8.26E-01,-0.02
-8.26E-01,-0.036
-8.25E-01,-0.04
-8.25E-01,-0.024
-8.25E-01,-0.024
-8.25E-01,-0.04
-8.25E-01,-0.032
-8.24E-01,-0.036
-8.24E-01,-0.024
-8.24E-01,-0.008
-8.24E-01,-0.016
-8.24E-01,-0.008
-8.23E-01,0
-8.23E-01,-0.008
-8.23E-01,-0.02
-8.23E-01,-0.02
-8.23E-01,-0.012
-8.22E-01,-0.024
-8.22E-01,-0.016
-8.22E-01,-0.02
-8.22E-01,-0.012
-8.22E-01,-0.004
-8.21E-01,-0.012
-8.21E-01,-0.024
-8.21E-01,-0.036
-8.21E-01,-0.016
-8.21E-01,-0.028
-8.20E-01,-0.032
-8.20E-01,-0.04
-8.20E-01,-0.06
-8.20E-01,-0.092
-8.20E-01,-0.084
-8.19E-01,-0.108
-8.19E-01,-0.112
-8.19E-01,-0.14
-8.19E-01,-0.14
-8.19E-01,-0.172
-8.18E-01,-0.16
-8.18E-01,-0.184
-8.18E-01,-0.176
-8.18E-01,-0.176
-8.18E-01,-0.18
-8.17E-01,-0.172
-8.17E-01,-0.164
-8.17E-01,-0.152
-8.17E-01,-0.124
-8.17E-01,-0.116
-8.16E-01,-0.112
-8.16E-01,-0.084
-8.16E-01,-0.06
-8.16E-01,-0.06
-8.16E-01,-0.072
-8.15E-01,-0.04
-8.15E-01,-0.024
-8.15E-01,-0.032
-8.15E-01,-0.004
-8.15E-01,0
-8.14E-01,0.016
-8.14E-01,0.024
-8.14E-01,0.028
-8.14E-01,0.036
-8.14E-01,0.072
-8.13E-01,0.076
-8.13E-01,0.088
-8.13E-01,0.1
-8.13E-01,0.116
-8.13E-01,0.112
-8.12E-01,0.104
-8.12E-01,0.112
-8.12E-01,0.1
-8.12E-01,0.108
-8.12E-01,0.124
-8.11E-01,0.128
-8.11E-01,0.132
-8.11E-01,0.152
-8.11E-01,0.152
-8.11E-01,0.144
-8.10E-01,0.156
-8.10E-01,0.164
-8.10E-01,0.132
-8.10E-01,0.148
-8.10E-01,0.156
-8.09E-01,0.148
-8.09E-01,0.14
-8.09E-01,0.128
-8.09E-01,0.132
-8.09E-01,0.12
-8.08E-01,0.116
-8.08E-01,0.112
-8.08E-01,0.108
-8.08E-01,0.108
-8.08E-01,0.08
-8.07E-01,0.072
-8.07E-01,0.06
-8.07E-01,0.06
-8.07E-01,0.04
-8.07E-01,0.028
-8.06E-01,0.032
-8.06E-01,0.012
-8.06E-01,0.028
-8.06E-01,0
-8.06E-01,-0.016
-8.05E-01,-0.024
-8.05E-01,-0.016
-8.05E-01,-0.02
-8.05E-01,-0.02
-8.05E-01,-0.02
-8.04E-01,-0.02
-8.04E-01,-0.012
-8.04E-01,-0.02
-8.04E-01,-0.024
-8.04E-01,-0.004
-8.03E-01,-0.024
-8.03E-01,-0.04
-8.03E-01,-0.048
-8.03E-01,-0.056
-8.03E-01,-0.06
-8.02E-01,-0.048
-8.02E-01,-0.06
-8.02E-01,-0.068
-8.02E-01,-0.064
-8.02E-01,-0.04
-8.01E-01,-0.044
-8.01E-01,-0.04
-8.01E-01,-0.044
-8.01E-01,-0.032
-8.01E-01,-0.048
-8.00E-01,-0.028
-8.00E-01,-0.032
-8.00E-01,-0.048
-8.00E-01,-0.044
-8.00E-01,-0.04
-7.99E-01,-0.044
-7.99E-01,-0.048
-7.99E-01,-0.044
-7.99E-01,-0.024
-7.99E-01,-0.032
-7.98E-01,-0.036
-7.98E-01,-0.02
-7.98E-01,-0.02
-7.98E-01,-0.016
-7.98E-01,-0.016
-7.97E-01,-0.016
-7.97E-01,0.004
-7.97E-01,0.008
-7.97E-01,0.016
-7.97E-01,0.012
-7.96E-01,0.024
-7.96E-01,0.048
-7.96E-01,0.048
-7.96E-01,0.048
-7.96E-01,0.068
-7.95E-01,0.08
-7.95E-01,0.064
-7.95E-01,0.088
-7.95E-01,0.096
-7.95E-01,0.108
-7.94E-01,0.104
-7.94E-01,0.112
-7.94E-01,0.096
-7.94E-01,0.12
-7.94E-01,0.128
-7.93E-01,0.12
-7.93E-01,0.132
-7.93E-01,0.14
-7.93E-01,0.144
-7.93E-01,0.164
-7.92E-01,0.168
-7.92E-01,0.172
-7.92E-01,0.16
-7.92E-01,0.168
-7.92E-01,0.168
-7.91E-01,0.156
-7.91E-01,0.148
-7.91E-01,0.14
-7.91E-01,0.128
-7.91E-01,0.132
-7.90E-01,0.144
-7.90E-01,0.128
-7.90E-01,0.112
-7.90E-01,0.128
-7.90E-01,0.096
-7.89E-01,0.08
-7.89E-01,0.064
-7.89E-01,0.044
-7.89E-01,0.044
-7.89E-01,0.024
-7.88E-01,0.012
-7.88E-01,0
-7.88E-01,-0.004
-7.88E-01,-0.02
-7.88E-01,-0.044
-7.87E-01,-0.04
-7.87E-01,-0.048
-7.87E-01,-0.052
-7.87E-01,-0.048
-7.87E-01,-0.076
-7.86E-01,-0.072
-7.86E-01,-0.072
-7.86E-01,-0.068
-7.86E-01,-0.076
-7.86E-01,-0.088
-7.85E-01,-0.096
-7.85E-01,-0.096
-7.85E-01,-0.096
-7.85E-01,-0.092
-7.85E-01,-0.092
-7.84E-01,-0.084
-7.84E-01,-0.096
-7.84E-01,-0.108
-7.84E-01,-0.1
-7.84E-01,-0.104
-7.83E-01,-0.112
-7.83E-01,-0.112
-7.83E-01,-0.12
-7.83E-01,-0.124
-7.83E-01,-0.104
-7.82E-01,-0.092
-7.82E-01,-0.108
-7.82E-01,-0.112
-7.82E-01,-0.112
-7.82E-01,-0.132
-7.81E-01,-0.112
-7.81E-01,-0.14
-7.81E-01,-0.12
-7.81E-01,-0.12
-7.81E-01,-0.088
-7.80E-01,-0.096
-7.80E-01,-0.084
-7.80E-01,-0.064
-7.80E-01,-0.04
-7.80E-01,-0.044
-7.79E-01,-0.028
-7.79E-01,-0.008
-7.79E-01,0.012
-7.79E-01,0.048
-7.79E-01,0.052
-7.78E-01,0.06
-7.78E-01,0.088
-7.78E-01,0.096
-7.78E-01,0.104
-7.78E-01,0.108
-7.77E-01,0.108
-7.77E-01,0.112
-7.77E-01,0.12
-7.77E-01,0.12
-7.77E-01,0.12
-7.76E-01,0.1
-7.76E-01,0.104
-7.76E-01,0.08
-7.76E-01,0.084
-7.76E-01,0.076
-7.75E-01,0.076
-7.75E-01,0.084
-7.75E-01,0.104
-7.75E-01,0.112
-7.75E-01,0.108
-7.74E-01,0.12
-7.74E-01,0.116
-7.74E-01,0.132
-7.74E-01,0.132
-7.74E-01,0.136
-7.73E-01,0.128
-7.73E-01,0.128
-7.73E-01,0.12
-7.73E-01,0.088
-7.73E-01,0.088
-7.72E-01,0.088
-7.72E-01,0.072
-7.72E-01,0.044
-7.72E-01,0.032
-7.72E-01,0.024
-7.71E-01,0.008
-7.71E-01,0.012
-7.71E-01,-0.012
-7.71E-01,0.004
-7.71E-01,-0.012
-7.70E-01,-0.024
-7.70E-01,-0.008
-7.70E-01,-0.028
-7.70E-01,-0.032
-7.70E-01,-0.02
-7.69E-01,-0.028
-7.69E-01,-0.032
-7.69E-01,-0.016
-7.69E-01,-0.004
-7.69E-01,-0.024
-7.68E-01,-0.028
-7.68E-01,-0.012
-7.68E-01,-0.024
-7.68E-01,-0.016
-7.68E-01,-0.012
-7.67E-01,-0.016
-7.67E-01,-0.024
-7.67E-01,-0.02
-7.67E-01,-0.032
-7.67E-01,-0.04
-7.66E-01,-0.032
-7.66E-01,-0.032
-7.66E-01,-0.032
-7.66E-01,-0.016
-7.66E-01,-0.024
-7.65E-01,-0.012
-7.65E-01,-0.012
-7.65E-01,-0.02
-7.65E-01,-0.008
-7.65E-01,0
-7.64E-01,0
-7.64E-01,0.016
-7.64E-01,0.016
-7.64E-01,0.012
-7.64E-01,0.028
-7.63E-01,0.036
-7.63E-01,0.032
-7.63E-01,0.028
-7.63E-01,0.056
-7.63E-01,0.06
-7.62E-01,0.052
-7.62E-01,0.068
-7.62E-01,0.076
-7.62E-01,0.088
-7.62E-01,0.084
-7.61E-01,0.104
-7.61E-01,0.104
-7.61E-01,0.112
-7.61E-01,0.128
-7.61E-01,0.128
-7.60E-01,0.14
-7.60E-01,0.148
-7.60E-01,0.148
-7.60E-01,0.14
-7.60E-01,0.136
-7.59E-01,0.132
-7.59E-01,0.124
-7.59E-01,0.12
-7.59E-01,0.12
-7.59E-01,0.116
-7.58E-01,0.104
-7.58E-01,0.088
-7.58E-01,0.084
-7.58E-01,0.076
-7.58E-01,0.06
-7.57E-01,0.044
-7.57E-01,0.032
-7.57E-01,0.036
-7.57E-01,0.04
-7.57E-01,0.016
-7.56E-01,0.016
-7.56E-01,0.012
-7.56E-01,0.012
-7.56E-01,0.024
-7.56E-01,0.004
-7.55E-01,0
-7.55E-01,0.02
-7.55E-01,0.012
-7.55E-01,0.012
-7.55E-01,0.008
-7.54E-01,0.008
-7.54E-01,0.016
-7.54E-01,0.028
-7.54E-01,0.016
-7.54E-01,0.036
-7.53E-01,0.036
-7.53E-01,0.016
-7.53E-01,0.012
-7.53E-01,0.016
-7.53E-01,0
-7.52E-01,0.004
-7.52E-01,0.004
-7.52E-01,0.008
-7.52E-01,-0.008
-7.52E-01,-0.004
-7.51E-01,-0.008
-7.51E-01,-0.02
-7.51E-01,-0.024
-7.51E-01,-0.028
-7.51E-01,-0.02
-7.50E-01,-0.028
-7.50E-01,-0.032
-7.50E-01,-0.04
-7.50E-01,-0.044
-7.50E-01,-0.048
-7.49E-01,-0.048
-7.49E-01,-0.052
-7.49E-01,-0.044
-7.49E-01,-0.044
-7.49E-01,-0.044
-7.48E-01,-0.036
-7.48E-01,-0.028
-7.48E-01,-0.028
-7.48E-01,-0.012
-7.48E-01,-0.016
-7.47E-01,-0.012
-7.47E-01,0.008
-7.47E-01,0.008
-7.47E-01,0.016
-7.47E-01,0.004
-7.46E-01,0.012
-7.46E-01,0.024
-7.46E-01,0.04
-7.46E-01,0.028
-7.46E-01,0.024
-7.45E-01,0.044
-7.45E-01,0.044
-7.45E-01,0.028
-7.45E-01,0.052
-7.45E-01,0.044
-7.44E-01,0.052
-7.44E-01,0.056
-7.44E-01,0.052
-7.44E-01,0.044
-7.44E-01,0.06
-7.43E-01,0.052
-7.43E-01,0.064
-7.43E-01,0.048
-7.43E-01,0.052
-7.43E-01,0.044
-7.42E-01,0.044
-7.42E-01,0.056
-7.42E-01,0.044
-7.42E-01,0.024
-7.42E-01,0.036
-7.41E-01,0.032
-7.41E-01,0.044
-7.41E-01,0.036
-7.41E-01,0.044
-7.41E-01,0.04
-7.40E-01,0.056
-7.40E-01,0.048
-7.40E-01,0.04
-7.40E-01,0.036
-7.40E-01,0.044
-7.39E-01,0.048
-7.39E-01,0.06
-7.39E-01,0.052
-7.39E-01,0.052
-7.39E-01,0.068
-7.38E-01,0.044
-7.38E-01,0.036
-7.38E-01,0.028
-7.38E-01,0.028
-7.38E-01,0.004
-7.37E-01,0.008
-7.37E-01,0.02
-7.37E-01,0.008
-7.37E-01,0.02
-7.37E-01,0.012
-7.36E-01,0.012
-7.36E-01,0.032
-7.36E-01,0.016
-7.36E-01,0.04
-7.36E-01,0.016
-7.35E-01,0.04
-7.35E-01,0.024
-7.35E-01,0.012
-7.35E-01,0.016
-7.35E-01,0.012
-7.34E-01,0.012
-7.34E-01,0.028
-7.34E-01,0.02
-7.34E-01,0.032
-7.34E-01,0.04
-7.33E-01,0.044
-7.33E-01,0.048
-7.33E-01,0.048
-7.33E-01,0.032
-7.33E-01,0.04
-7.32E-01,0.036
-7.32E-01,0.016
-7.32E-01,0.016
-7.32E-01,0.012
-7.32E-01,0.008
-7.31E-01,0.016
-7.31E-01,-0.012
-7.31E-01,-0.016
-7.31E-01,-0.016
-7.31E-01,-0.016
-7.30E-01,-0.028
-7.30E-01,-0.036
-7.30E-01,-0.024
-7.30E-01,-0.012
-7.30E-01,0.004
-7.29E-01,-0.004
-7.29E-01,0.004
-7.29E-01,0.012
-7.29E-01,0.016
-7.29E-01,0.016
-7.28E-01,0.016
-7.28E-01,0.012
-7.28E-01,0.032
-7.28E-01,0.028
-7.28E-01,0.012
-7.27E-01,0.008
-7.27E-01,0.024
-7.27E-01,0.008
-7.27E-01,0.032
-7.27E-01,0.028
-7.26E-01,0.036
-7.26E-01,0.06
-7.26E-01,0.06
-7.26E-01,0.072
-7.26E-01,0.08
-7.25E-01,0.08
-7.25E-01,0.076
-7.25E-01,0.096
-7.25E-01,0.096
-7.25E-01,0.104
-7.24E-01,0.108
-7.24E-01,0.116
-7.24E-01,0.132
-7.24E-01,0.136
-7.24E-01,0.132
-7.23E-01,0.148
-7.23E-01,0.148
-7.23E-01,0.152
-7.23E-01,0.112
-7.23E-01,0.112
-7.22E-01,0.112
-7.22E-01,0.104
-7.22E-01,0.08
-7.22E-01,0.084
-7.22E-01,0.076
-7.21E-01,0.072
-7.21E-01,0.048
-7.21E-01,0.056
-7.21E-01,0.032
-7.21E-01,0.02
-7.20E-01,0.02
-7.20E-01,-0.008
-7.20E-01,-0.012
-7.20E-01,-0.016
-7.20E-01,-0.04
-7.19E-01,-0.056
-7.19E-01,-0.06
-7.19E-01,-0.068
-7.19E-01,-0.076
-7.19E-01,-0.068
-7.18E-01,-0.076
-7.18E-01,-0.084
-7.18E-01,-0.068
-7.18E-01,-0.08
-7.18E-01,-0.064
-7.17E-01,-0.064
-7.17E-01,-0.048
-7.17E-01,-0.048
-7.17E-01,-0.052
-7.17E-01,-0.056
-7.16E-01,-0.072
-7.16E-01,-0.088
-7.16E-01,-0.084
-7.16E-01,-0.104
-7.16E-01,-0.108
-7.15E-01,-0.128
-7.15E-01,-0.12
-7.15E-01,-0.144
-7.15E-01,-0.14
-7.15E-01,-0.14
-7.14E-01,-0.116
-7.14E-01,-0.112
-7.14E-01,-0.096
-7.14E-01,-0.088
-7.14E-01,-0.068
-7.13E-01,-0.056
-7.13E-01,-0.012
-7.13E-01,-0.016
-7.13E-01,-0.008
-7.13E-01,0
-7.12E-01,0.012
-7.12E-01,-0.004
-7.12E-01,0.004
-7.12E-01,0.016
-7.12E-01,0.008
-7.11E-01,0.024
-7.11E-01,0.024
-7.11E-01,0.02
-7.11E-01,0.048
-7.11E-01,0.048
-7.10E-01,0.044
-7.10E-01,0.048
-7.10E-01,0.072
-7.10E-01,0.096
-7.10E-01,0.096
-7.09E-01,0.116
-7.09E-01,0.112
-7.09E-01,0.112
-7.09E-01,0.116
-7.09E-01,0.116
-7.08E-01,0.096
-7.08E-01,0.108
-7.08E-01,0.112
-7.08E-01,0.1
-7.08E-01,0.112
-7.07E-01,0.104
-7.07E-01,0.092
-7.07E-01,0.084
-7.07E-01,0.096
-7.07E-01,0.092
-7.06E-01,0.08
-7.06E-01,0.076
-7.06E-01,0.088
-7.06E-01,0.072
-7.06E-01,0.072
-7.05E-01,0.052
-7.05E-01,0.056
-7.05E-01,0.04
-7.05E-01,0.028
-7.05E-01,0.028
-7.04E-01,0.036
-7.04E-01,0.036
-7.04E-01,0.02
-7.04E-01,0.032
-7.04E-01,0.024
-7.03E-01,0.032
-7.03E-01,0.052
-7.03E-01,0.02
-7.03E-01,0.016
-7.03E-01,0.016
-7.02E-01,0.02
-7.02E-01,-0.016
-7.02E-01,0.004
-7.02E-01,0.008
-7.02E-01,0.004
-7.01E-01,0.008
-7.01E-01,0.008
-7.01E-01,-0.012
-7.01E-01,0
-7.01E-01,0.004
-7.00E-01,-0.024
-7.00E-01,-0.012
-7.00E-01,-0.012
-7.00E-01,-0.032
-7.00E-01,-0.028
-6.99E-01,-0.028
-6.99E-01,-0.04
-6.99E-01,-0.036
-6.99E-01,-0.008
-6.99E-01,-0.028
-6.98E-01,-0.032
-6.98E-01,-0.024
-6.98E-01,-0.024
-6.98E-01,-0.02
-6.98E-01,-0.044
-6.97E-01,-0.056
-6.97E-01,-0.056
-6.97E-01,-0.06
-6.97E-01,-0.056
-6.97E-01,-0.072
-6.96E-01,-0.068
-6.96E-01,-0.076
-6.96E-01,-0.072
-6.96E-01,-0.056
-6.96E-01,-0.064
-6.95E-01,-0.052
-6.95E-01,-0.04
-6.95E-01,-0.04
-6.95E-01,-0.032
-6.95E-01,-0.016
-6.94E-01,0
-6.94E-01,0.012
-6.94E-01,0.016
-6.94E-01,0.02
-6.94E-01,0.016
-6.93E-01,0.044
-6.93E-01,0.052
-6.93E-01,0.04
-6.93E-01,0.052
-6.93E-01,0.064
-6.92E-01,0.056
-6.92E-01,0.064
-6.92E-01,0.076
-6.92E-01,0.068
-6.92E-01,0.048
-6.91E-01,0.064
-6.91E-01,0.06
-6.91E-01,0.048
-6.91E-01,0.012
-6.91E-01,0.016
-6.90E-01,0
-6.90E-01,0.008
-6.90E-01,-0.012
-6.90E-01,-0.004
-6.90E-01,0
-6.89E-01,0.004
-6.89E-01,-0.004
-6.89E-01,0.008
-6.89E-01,0.028
-6.89E-01,0.032
-6.88E-01,0.028
-6.88E-01,0.032
-6.88E-01,0.048
-6.88E-01,0.048
-6.88E-01,0.068
-6.87E-01,0.036
-6.87E-01,0.04
-6.87E-01,0.048
-6.87E-01,0.04
-6.87E-01,0.024
-6.86E-01,0.016
-6.86E-01,0.02
-6.86E-01,0.008
-6.86E-01,0
-6.86E-01,-0.032
-6.85E-01,-0.044
-6.85E-01,-0.048
-6.85E-01,-0.084
-6.85E-01,-0.104
-6.85E-01,-0.1
-6.84E-01,-0.128
-6.84E-01,-0.112
-6.84E-01,-0.136
-6.84E-01,-0.152
-6.84E-01,-0.164
-6.83E-01,-0.156
-6.83E-01,-0.184
-6.83E-01,-0.188
-6.83E-01,-0.188
-6.83E-01,-0.204
-6.82E-01,-0.216
-6.82E-01,-0.2
-6.82E-01,-0.204
-6.82E-01,-0.204
-6.82E-01,-0.192
-6.81E-01,-0.176
-6.81E-01,-0.18
-6.81E-01,-0.164
-6.81E-01,-0.164
-6.81E-01,-0.152
-6.80E-01,-0.156
-6.80E-01,-0.148
-6.80E-01,-0.152
-6.80E-01,-0.136
-6.80E-01,-0.136
-6.79E-01,-0.132
-6.79E-01,-0.12
-6.79E-01,-0.104
-6.79E-01,-0.096
-6.79E-01,-0.084
-6.78E-01,-0.08
-6.78E-01,-0.084
-6.78E-01,-0.084
-6.78E-01,-0.064
-6.78E-01,-0.096
-6.77E-01,-0.08
-6.77E-01,-0.084
-6.77E-01,-0.08
-6.77E-01,-0.088
-6.77E-01,-0.088
-6.76E-01,-0.084
-6.76E-01,-0.084
-6.76E-01,-0.104
-6.76E-01,-0.108
-6.76E-01,-0.12
-6.75E-01,-0.116
-6.75E-01,-0.112
-6.75E-01,-0.132
-6.75E-01,-0.124
-6.75E-01,-0.136
-6.74E-01,-0.136
-6.74E-01,-0.156
-6.74E-01,-0.16
-6.74E-01,-0.184
-6.74E-01,-0.196
-6.73E-01,-0.208
-6.73E-01,-0.22
-6.73E-01,-0.232
-6.73E-01,-0.248
-6.73E-01,-0.276
-6.72E-01,-0.304
-6.72E-01,-0.308
-6.72E-01,-0.336
-6.72E-01,-0.372
-6.72E-01,-0.376
-6.71E-01,-0.392
-6.71E-01,-0.428
-6.71E-01,-0.46
-6.71E-01,-0.472
-6.71E-01,-0.496
-6.70E-01,-0.492
-6.70E-01,-0.528
-6.70E-01,-0.536
-6.70E-01,-0.552
-6.70E-01,-0.556
-6.69E-01,-0.588
-6.69E-01,-0.596
-6.69E-01,-0.612
-6.69E-01,-0.62
-6.69E-01,-0.656
-6.68E-01,-0.688
-6.68E-01,-0.732
-6.68E-01,-0.736
-6.68E-01,-0.804
-6.68E-01,-0.832
-6.67E-01,-0.852
-6.67E-01,-0.876
-6.67E-01,-0.9
-6.67E-01,-0.916
-6.67E-01,-0.912
-6.66E-01,-0.924
-6.66E-01,-0.92
-6.66E-01,-0.924
-6.66E-01,-0.92
-6.66E-01,-0.924
-6.65E-01,-0.916
-6.65E-01,-0.912
-6.65E-01,-0.892
-6.65E-01,-0.876
-6.65E-01,-0.856
-6.64E-01,-0.836
-6.64E-01,-0.812
-6.64E-01,-0.804
-6.64E-01,-0.796
-6.64E-01,-0.784
-6.63E-01,-0.784
-6.63E-01,-0.78
-6.63E-01,-0.764
-6.63E-01,-0.764
-6.63E-01,-0.74
-6.62E-01,-0.716
-6.62E-01,-0.704
-6.62E-01,-0.692
-6.62E-01,-0.648
-6.62E-01,-0.628
-6.61E-01,-0.624
-6.61E-01,-0.596
-6.61E-01,-0.58
-6.61E-01,-0.564
-6.61E-01,-0.528
-6.60E-01,-0.5
-6.60E-01,-0.496
-6.60E-01,-0.468
-6.60E-01,-0.452
-6.60E-01,-0.424
-6.59E-01,-0.416
-6.59E-01,-0.396
-6.59E-01,-0.38
-6.59E-01,-0.356
-6.59E-01,-0.36
-6.58E-01,-0.344
-6.58E-01,-0.336
-6.58E-01,-0.316
-6.58E-01,-0.308
-6.58E-01,-0.284
-6.57E-01,-0.264
-6.57E-01,-0.232
-6.57E-01,-0.232
-6.57E-01,-0.212
-6.57E-01,-0.208
-6.56E-01,-0.212
-6.56E-01,-0.212
-6.56E-01,-0.196
-6.56E-01,-0.204
-6.56E-01,-0.2
-6.55E-01,-0.216
-6.55E-01,-0.212
-6.55E-01,-0.216
-6.55E-01,-0.22
-6.55E-01,-0.232
-6.54E-01,-0.22
-6.54E-01,-0.192
-6.54E-01,-0.212
-6.54E-01,-0.212
-6.54E-01,-0.204
-6.53E-01,-0.192
-6.53E-01,-0.172
-6.53E-01,-0.196
-6.53E-01,-0.188
-6.53E-01,-0.18
-6.52E-01,-0.16
-6.52E-01,-0.172
-6.52E-01,-0.168
-6.52E-01,-0.168
-6.52E-01,-0.168
-6.51E-01,-0.176
-6.51E-01,-0.16
-6.51E-01,-0.16
-6.51E-01,-0.156
-6.51E-01,-0.144
-6.50E-01,-0.148
-6.50E-01,-0.136
-6.50E-01,-0.112
-6.50E-01,-0.096
-6.50E-01,-0.1
-6.49E-01,-0.096
-6.49E-01,-0.092
-6.49E-01,-0.08
-6.49E-01,-0.072
-6.49E-01,-0.044
-6.48E-01,-0.04
-6.48E-01,0
-6.48E-01,0.004
-6.48E-01,0.028
-6.48E-01,0.048
-6.47E-01,0.064
-6.47E-01,0.092
-6.47E-01,0.116
-6.47E-01,0.136
-6.47E-01,0.168
-6.46E-01,0.184
-6.46E-01,0.216
-6.46E-01,0.236
-6.46E-01,0.248
-6.46E-01,0.272
-6.45E-01,0.284
-6.45E-01,0.312
-6.45E-01,0.328
-6.45E-01,0.332
-6.45E-01,0.348
-6.44E-01,0.356
-6.44E-01,0.376
-6.44E-01,0.376
-6.44E-01,0.384
-6.44E-01,0.4
-6.43E-01,0.404
-6.43E-01,0.408
-6.43E-01,0.416
-6.43E-01,0.412
-6.43E-01,0.452
-6.42E-01,0.46
-6.42E-01,0.456
-6.42E-01,0.46
-6.42E-01,0.468
-6.42E-01,0.464
-6.41E-01,0.456
-6.41E-01,0.476
-6.41E-01,0.468
-6.41E-01,0.468
-6.41E-01,0.472
-6.40E-01,0.48
-6.40E-01,0.484
-6.40E-01,0.492
-6.40E-01,0.5
-6.40E-01,0.5
-6.39E-01,0.508
-6.39E-01,0.512
-6.39E-01,0.504
-6.39E-01,0.52
-6.39E-01,0.536
-6.38E-01,0.524
-6.38E-01,0.528
-6.38E-01,0.524
-6.38E-01,0.54
-6.38E-01,0.552
-6.37E-01,0.56
-6.37E-01,0.548
-6.37E-01,0.556
-6.37E-01,0.556
-6.37E-01,0.536
-6.36E-01,0.536
-6.36E-01,0.54
-6.36E-01,0.528
-6.36E-01,0.508
-6.36E-01,0.516
-6.35E-01,0.512
-6.35E-01,0.508
-6.35E-01,0.52
-6.35E-01,0.492
-6.35E-01,0.512
-6.34E-01,0.508
-6.34E-01,0.488
-6.34E-01,0.484
-6.34E-01,0.484
-6.34E-01,0.476
-6.33E-01,0.476
-6.33E-01,0.468
-6.33E-01,0.468
-6.33E-01,0.468
-6.33E-01,0.452
-6.32E-01,0.432
-6.32E-01,0.42
-6.32E-01,0.42
-6.32E-01,0.428
-6.32E-01,0.44
-6.31E-01,0.464
-6.31E-01,0.46
-6.31E-01,0.468
-6.31E-01,0.472
-6.31E-01,0.484
-6.30E-01,0.492
-6.30E-01,0.496
-6.30E-01,0.504
-6.30E-01,0.52
-6.30E-01,0.528
-6.29E-01,0.532
-6.29E-01,0.528
-6.29E-01,0.524
-6.29E-01,0.544
-6.29E-01,0.524
-6.28E-01,0.52
-6.28E-01,0.54
-6.28E-01,0.528
-6.28E-01,0.536
-6.28E-01,0.528
-6.27E-01,0.508
-6.27E-01,0.508
-6.27E-01,0.52
-6.27E-01,0.512
-6.27E-01,0.528
-6.26E-01,0.532
-6.26E-01,0.544
-6.26E-01,0.56
-6.26E-01,0.56
-6.26E-01,0.548
-6.25E-01,0.56
-6.25E-01,0.58
-6.25E-01,0.56
-6.25E-01,0.544
-6.25E-01,0.544
-6.24E-01,0.556
-6.24E-01,0.552
-6.24E-01,0.516
-6.24E-01,0.524
-6.24E-01,0.508
-6.23E-01,0.512
-6.23E-01,0.516
-6.23E-01,0.5
-6.23E-01,0.484
-6.23E-01,0.48
-6.22E-01,0.452
-6.22E-01,0.452
-6.22E-01,0.416
-6.22E-01,0.396
-6.22E-01,0.372
-6.21E-01,0.376
-6.21E-01,0.352
-6.21E-01,0.34
-6.21E-01,0.332
-6.21E-01,0.332
-6.20E-01,0.312
-6.20E-01,0.312
-6.20E-01,0.288
-6.20E-01,0.276
-6.20E-01,0.272
-6.19E-01,0.24
-6.19E-01,0.228
-6.19E-01,0.216
-6.19E-01,0.2
-6.19E-01,0.188
-6.18E-01,0.196
-6.18E-01,0.164
-6.18E-01,0.16
-6.18E-01,0.148
-6.18E-01,0.116
-6.17E-01,0.12
-6.17E-01,0.128
-6.17E-01,0.108
-6.17E-01,0.1
-6.17E-01,0.088
-6.16E-01,0.092
-6.16E-01,0.072
-6.16E-01,0.036
-6.16E-01,0.016
-6.16E-01,0.024
-6.15E-01,0.008
-6.15E-01,-0.008
-6.15E-01,-0.04
-6.15E-01,-0.04
-6.15E-01,-0.04
-6.14E-01,-0.036
-6.14E-01,-0.052
-6.14E-01,-0.032
-6.14E-01,-0.024
-6.14E-01,-0.004
-6.13E-01,0.008
-6.13E-01,0.028
-6.13E-01,0.04
-6.13E-01,0.064
-6.13E-01,0.056
-6.12E-01,0.064
-6.12E-01,0.088
-6.12E-01,0.08
-6.12E-01,0.076
-6.12E-01,0.116
-6.11E-01,0.116
-6.11E-01,0.128
-6.11E-01,0.136
-6.11E-01,0.136
-6.11E-01,0.136
-6.10E-01,0.144
-6.10E-01,0.12
-6.10E-01,0.112
-6.10E-01,0.104
-6.10E-01,0.108
-6.09E-01,0.072
-6.09E-01,0.052
-6.09E-01,0.056
-6.09E-01,0.04
-6.09E-01,0.02
-6.08E-01,0
-6.08E-01,-0.012
-6.08E-01,-0.024
-6.08E-01,-0.024
-6.08E-01,-0.048
-6.07E-01,-0.06
-6.07E-01,-0.036
-6.07E-01,-0.032
-6.07E-01,-0.02
-6.07E-01,-0.008
-6.06E-01,-0.016
-6.06E-01,-0.008
-6.06E-01,0
-6.06E-01,0.008
-6.06E-01,0.008
-6.05E-01,-0.004
-6.05E-01,-0.016
-6.05E-01,-0.024
-6.05E-01,-0.04
-6.05E-01,-0.044
-6.04E-01,-0.048
-6.04E-01,-0.04
-6.04E-01,-0.04
-6.04E-01,-0.052
-6.04E-01,-0.06
-6.03E-01,-0.06
-6.03E-01,-0.08
-6.03E-01,-0.084
-6.03E-01,-0.076
-6.03E-01,-0.092
-6.02E-01,-0.084
-6.02E-01,-0.08
-6.02E-01,-0.1
-6.02E-01,-0.096
-6.02E-01,-0.088
-6.01E-01,-0.104
-6.01E-01,-0.112
-6.01E-01,-0.096
-6.01E-01,-0.104
-6.01E-01,-0.096
-6.00E-01,-0.1
-6.00E-01,-0.124
-6.00E-01,-0.124
-6.00E-01,-0.12
-6.00E-01,-0.128
-5.99E-01,-0.14
-5.99E-01,-0.108
-5.99E-01,-0.104
-5.99E-01,-0.088
-5.99E-01,-0.088
-5.98E-01,-0.072
-5.98E-01,-0.044
-5.98E-01,-0.032
-5.98E-01,-0.016
-5.98E-01,-0.02
-5.97E-01,0.004
-5.97E-01,0.012
-5.97E-01,0.032
-5.97E-01,0.036
-5.97E-01,0.06
-5.96E-01,0.06
-5.96E-01,0.076
-5.96E-01,0.064
-5.96E-01,0.056
-5.96E-01,0.048
-5.95E-01,0.056
-5.95E-01,0.052
-5.95E-01,0.064
-5.95E-01,0.056
-5.95E-01,0.048
-5.94E-01,0.072
-5.94E-01,0.064
-5.94E-01,0.068
-5.94E-01,0.072
-5.94E-01,0.06
-5.93E-01,0.06
-5.93E-01,0.044
-5.93E-01,0.044
-5.93E-01,0.012
-5.93E-01,0.012
-5.92E-01,0
-5.92E-01,0
-5.92E-01,-0.024
-5.92E-01,-0.004
-5.92E-01,-0.012
-5.91E-01,0.012
-5.91E-01,0.012
-5.91E-01,0.02
-5.91E-01,0
-5.91E-01,0.024
-5.90E-01,0.024
-5.90E-01,0.028
-5.90E-01,0.024
-5.90E-01,0.036
-5.90E-01,0.024
-5.89E-01,0.028
-5.89E-01,0.028
-5.89E-01,0.04
-5.89E-01,0.024
-5.89E-01,0.028
-5.88E-01,0.04
-5.88E-01,0.032
-5.88E-01,0.032
-5.88E-01,0.008
-5.88E-01,0.008
-5.87E-01,-0.016
-5.87E-01,-0.028
-5.87E-01,-0.04
-5.87E-01,-0.056
-5.87E-01,-0.064
-5.86E-01,-0.084
-5.86E-01,-0.088
-5.86E-01,-0.072
-5.86E-01,-0.088
-5.86E-01,-0.064
-5.85E-01,-0.088
-5.85E-01,-0.088
-5.85E-01,-0.088
-5.85E-01,-0.084
-5.85E-01,-0.08
-5.84E-01,-0.076
-5.84E-01,-0.076
-5.84E-01,-0.076
-5.84E-01,-0.072
-5.84E-01,-0.056
-5.83E-01,-0.068
-5.83E-01,-0.048
-5.83E-01,-0.048
-5.83E-01,-0.052
-5.83E-01,-0.02
-5.82E-01,-0.04
-5.82E-01,-0.032
-5.82E-01,-0.028
-5.82E-01,-0.032
-5.82E-01,-0.044
-5.81E-01,-0.044
-5.81E-01,-0.028
-5.81E-01,-0.012
-5.81E-01,-0.016
-5.81E-01,-0.012
-5.80E-01,-0.016
-5.80E-01,-0.02
-5.80E-01,-0.008
-5.80E-01,0.02
-5.80E-01,0.016
-5.79E-01,0.032
-5.79E-01,0.044
-5.79E-01,0.044
-5.79E-01,0.032
-5.79E-01,0.032
-5.78E-01,0.024
-5.78E-01,0.024
-5.78E-01,-0.004
-5.78E-01,-0.012
-5.78E-01,-0.02
-5.77E-01,-0.016
-5.77E-01,-0.052
-5.77E-01,-0.04
-5.77E-01,-0.056
-5.77E-01,-0.06
-5.76E-01,-0.056
-5.76E-01,-0.06
-5.76E-01,-0.048
-5.76E-01,-0.056
-5.76E-01,-0.06
-5.75E-01,-0.056
-5.75E-01,-0.032
-5.75E-01,-0.052
-5.75E-01,-0.044
-5.75E-01,-0.068
-5.74E-01,-0.068
-5.74E-01,-0.032
-5.74E-01,-0.056
-5.74E-01,-0.052
-5.74E-01,-0.06
-5.73E-01,-0.064
-5.73E-01,-0.064
-5.73E-01,-0.076
-5.73E-01,-0.068
-5.73E-01,-0.08
-5.72E-01,-0.084
-5.72E-01,-0.108
-5.72E-01,-0.104
-5.72E-01,-0.088
-5.72E-01,-0.1
-5.71E-01,-0.12
-5.71E-01,-0.12
-5.71E-01,-0.124
-5.71E-01,-0.12
-5.71E-01,-0.12
-5.70E-01,-0.128
-5.70E-01,-0.136
-5.70E-01,-0.132
-5.70E-01,-0.14
-5.70E-01,-0.14
-5.69E-01,-0.128
-5.69E-01,-0.132
-5.69E-01,-0.132
-5.69E-01,-0.124
-5.69E-01,-0.148
-5.68E-01,-0.144
-5.68E-01,-0.152
-5.68E-01,-0.132
-5.68E-01,-0.144
-5.68E-01,-0.132
-5.67E-01,-0.116
-5.67E-01,-0.096
-5.67E-01,-0.108
-5.67E-01,-0.116
-5.67E-01,-0.112
-5.66E-01,-0.104
-5.66E-01,-0.08
-5.66E-01,-0.1
-5.66E-01,-0.088
-5.66E-01,-0.088
-5.65E-01,-0.068
-5.65E-01,-0.076
-5.65E-01,-0.064
-5.65E-01,-0.076
-5.65E-01,-0.056
-5.64E-01,-0.04
-5.64E-01,-0.048
-5.64E-01,-0.032
-5.64E-01,-0.032
-5.64E-01,-0.024
-5.63E-01,-0.032
-5.63E-01,-0.028
-5.63E-01,-0.024
-5.63E-01,-0.016
-5.63E-01,0.012
-5.62E-01,-0.028
-5.62E-01,-0.016
-5.62E-01,-0.004
-5.62E-01,-0.012
-5.62E-01,-0.012
-5.61E-01,0
-5.61E-01,-0.012
-5.61E-01,0.004
-5.61E-01,0.016
-5.61E-01,0.024
-5.60E-01,0.008
-5.60E-01,-0.016
-5.60E-01,0.012
-5.60E-01,0.004
-5.60E-01,-0.008
-5.59E-01,-0.004
-5.59E-01,0
-5.59E-01,0
-5.59E-01,0.028
-5.59E-01,0.024
-5.58E-01,0.024
-5.58E-01,0.04
-5.58E-01,0.036
-5.58E-01,0.044
-5.58E-01,0.044
-5.57E-01,0.036
-5.57E-01,0.056
-5.57E-01,0.064
-5.57E-01,0.064
-5.57E-01,0.056
-5.56E-01,0.048
-5.56E-01,0.052
-5.56E-01,0.068
-5.56E-01,0.04
-5.56E-01,0.044
-5.55E-01,0.036
-5.55E-01,0.024
-5.55E-01,0.016
-5.55E-01,0.008
-5.55E-01,-0.004
-5.54E-01,-0.004
-5.54E-01,-0.004
-5.54E-01,-0.004
-5.54E-01,-0.008
-5.54E-01,-0.012
-5.53E-01,-0.02
-5.53E-01,-0.016
-5.53E-01,-0.044
-5.53E-01,-0.056
-5.53E-01,-0.048
-5.52E-01,-0.048
-5.52E-01,-0.076
-5.52E-01,-0.048
-5.52E-01,-0.072
-5.52E-01,-0.084
-5.51E-01,-0.076
-5.51E-01,-0.096
-5.51E-01,-0.1
-5.51E-01,-0.112
-5.51E-01,-0.124
-5.50E-01,-0.164
-5.50E-01,-0.16
-5.50E-01,-0.168
-5.50E-01,-0.168
-5.50E-01,-0.172
-5.49E-01,-0.176
-5.49E-01,-0.188
-5.49E-01,-0.16
-5.49E-01,-0.164
-5.49E-01,-0.152
-5.48E-01,-0.14
-5.48E-01,-0.132
-5.48E-01,-0.132
-5.48E-01,-0.124
-5.48E-01,-0.116
-5.47E-01,-0.104
-5.47E-01,-0.092
-5.47E-01,-0.084
-5.47E-01,-0.088
-5.47E-01,-0.06
-5.46E-01,-0.044
-5.46E-01,-0.016
-5.46E-01,-0.004
-5.46E-01,0.004
-5.46E-01,0.016
-5.45E-01,0.032
-5.45E-01,0.028
-5.45E-01,0.06
-5.45E-01,0.056
-5.45E-01,0.06
-5.44E-01,0.064
-5.44E-01,0.06
-5.44E-01,0.06
-5.44E-01,0.056
-5.44E-01,0.06
-5.43E-01,0.048
-5.43E-01,0.06
-5.43E-01,0.06
-5.43E-01,0.06
-5.43E-01,0.056
-5.42E-01,0.064
-5.42E-01,0.048
-5.42E-01,0.052
-5.42E-01,0.072
-5.42E-01,0.08
-5.41E-01,0.072
-5.41E-01,0.068
-5.41E-01,0.06
-5.41E-01,0.072
-5.41E-01,0.064
-5.40E-01,0.048
-5.40E-01,0.032
-5.40E-01,0.04
-5.40E-01,0.032
-5.40E-01,0.016
-5.39E-01,0.016
-5.39E-01,0.008
-5.39E-01,0.012
-5.39E-01,-0.004
-5.39E-01,-0.016
-5.38E-01,-0.016
-5.38E-01,-0.012
-5.38E-01,-0.032
-5.38E-01,-0.044
-5.38E-01,-0.052
-5.37E-01,-0.052
-5.37E-01,-0.048
-5.37E-01,-0.032
-5.37E-01,-0.036
-5.37E-01,-0.032
-5.36E-01,-0.028
-5.36E-01,-0.032
-5.36E-01,-0.024
-5.36E-01,-0.016
-5.36E-01,-0.012
-5.35E-01,0.008
-5.35E-01,0.012
-5.35E-01,0.016
-5.35E-01,0.02
-5.35E-01,0.04
-5.34E-01,0.016
-5.34E-01,0.028
-5.34E-01,0.008
-5.34E-01,0.024
-5.34E-01,0.024
-5.33E-01,0.012
-5.33E-01,0.008
-5.33E-01,0
-5.33E-01,0.008
-5.33E-01,0
-5.32E-01,-0.032
-5.32E-01,-0.044
-5.32E-01,-0.024
-5.32E-01,-0.032
-5.32E-01,-0.024
-5.31E-01,-0.02
-5.31E-01,-0.048
-5.31E-01,-0.024
-5.31E-01,-0.02
-5.31E-01,-0.028
-5.30E-01,-0.048
-5.30E-01,-0.04
-5.30E-01,-0.052
-5.30E-01,-0.048
-5.30E-01,-0.052
-5.29E-01,-0.06
-5.29E-01,-0.04
-5.29E-01,-0.032
-5.29E-01,-0.044
-5.29E-01,-0.036
-5.28E-01,-0.02
-5.28E-01,-0.024
-5.28E-01,-0.016
-5.28E-01,-0.028
-5.28E-01,-0.036
-5.27E-01,-0.044
-5.27E-01,-0.036
-5.27E-01,-0.028
-5.27E-01,-0.04
-5.27E-01,-0.04
-5.26E-01,-0.012
-5.26E-01,-0.008
-5.26E-01,0.004
-5.26E-01,0
-5.26E-01,0
-5.25E-01,0
-5.25E-01,0.008
-5.25E-01,-0.004
-5.25E-01,-0.012
-5.25E-01,-0.004
-5.24E-01,-0.02
-5.24E-01,-0.024
-5.24E-01,-0.032
-5.24E-01,-0.048
-5.24E-01,-0.044
-5.23E-01,-0.04
-5.23E-01,-0.056
-5.23E-01,-0.076
-5.23E-01,-0.076
-5.23E-01,-0.068
-5.22E-01,-0.064
-5.22E-01,-0.084
-5.22E-01,-0.08
-5.22E-01,-0.08
-5.22E-01,-0.06
-5.21E-01,-0.048
-5.21E-01,-0.056
-5.21E-01,-0.044
-5.21E-01,-0.048
-5.21E-01,-0.064
-5.20E-01,-0.064
-5.20E-01,-0.072
-5.20E-01,-0.072
-5.20E-01,-0.072
-5.20E-01,-0.088
-5.19E-01,-0.096
-5.19E-01,-0.104
-5.19E-01,-0.108
-5.19E-01,-0.124
-5.19E-01,-0.116
-5.18E-01,-0.132
-5.18E-01,-0.128
-5.18E-01,-0.144
-5.18E-01,-0.148
-5.18E-01,-0.14
-5.17E-01,-0.14
-5.17E-01,-0.124
-5.17E-01,-0.124
-5.17E-01,-0.116
-5.17E-01,-0.096
-5.16E-01,-0.084
-5.16E-01,-0.084
-5.16E-01,-0.064
-5.16E-01,-0.06
-5.16E-01,-0.056
-5.15E-01,-0.032
-5.15E-01,-0.028
-5.15E-01,-0.04
-5.15E-01,-0.008
-5.15E-01,-0.012
-5.14E-01,-0.012
-5.14E-01,-0.02
-5.14E-01,-0.008
-5.14E-01,0.012
-5.14E-01,0.04
-5.13E-01,0.02
-5.13E-01,0.024
-5.13E-01,0.04
-5.13E-01,0.048
-5.13E-01,0.048
-5.12E-01,0.056
-5.12E-01,0.052
-5.12E-01,0.068
-5.12E-01,0.064
-5.12E-01,0.064
-5.11E-01,0.072
-5.11E-01,0.08
-5.11E-01,0.084
-5.11E-01,0.076
-5.11E-01,0.076
-5.10E-01,0.068
-5.10E-01,0.06
-5.10E-01,0.064
-5.10E-01,0.06
-5.10E-01,0.04
-5.09E-01,0.028
-5.09E-01,0.016
-5.09E-01,0
-5.09E-01,-0.02
-5.09E-01,-0.024
-5.08E-01,-0.04
-5.08E-01,-0.044
-5.08E-01,-0.048
-5.08E-01,-0.048
-5.08E-01,-0.064
-5.07E-01,-0.064
-5.07E-01,-0.072
-5.07E-01,-0.048
-5.07E-01,-0.072
-5.07E-01,-0.068
-5.06E-01,-0.06
-5.06E-01,-0.076
-5.06E-01,-0.064
-5.06E-01,-0.072
-5.06E-01,-0.064
-5.05E-01,-0.052
-5.05E-01,-0.048
-5.05E-01,-0.064
-5.05E-01,-0.048
-5.05E-01,-0.048
-5.04E-01,-0.052
-5.04E-01,-0.044
-5.04E-01,-0.04
-5.04E-01,-0.044
-5.04E-01,-0.036
-5.03E-01,-0.052
-5.03E-01,-0.068
-5.03E-01,-0.064
-5.03E-01,-0.072
-5.03E-01,-0.1
-5.02E-01,-0.12
-5.02E-01,-0.14
-5.02E-01,-0.16
-5.02E-01,-0.164
-5.02E-01,-0.188
-5.01E-01,-0.204
-5.01E-01,-0.2
-5.01E-01,-0.22
-5.01E-01,-0.216
-5.01E-01,-0.228
-5.00E-01,-0.236
-5.00E-01,-0.248
-5.00E-01,-0.26
-5.00E-01,-0.28
-5.00E-01,-0.284
-4.99E-01,-0.272
-4.99E-01,-0.284
-4.99E-01,-0.3
-4.99E-01,-0.292
-4.99E-01,-0.284
-4.98E-01,-0.28
-4.98E-01,-0.252
-4.98E-01,-0.208
-4.98E-01,-0.224
-4.98E-01,-0.192
-4.97E-01,-0.176
-4.97E-01,-0.152
-4.97E-01,-0.148
-4.97E-01,-0.132
-4.97E-01,-0.112
-4.96E-01,-0.104
-4.96E-01,-0.076
-4.96E-01,-0.076
-4.96E-01,-0.068
-4.96E-01,-0.032
-4.95E-01,-0.032
-4.95E-01,-0.024
-4.95E-01,-0.016
-4.95E-01,0.008
-4.95E-01,0.016
-4.94E-01,0.028
-4.94E-01,0.032
-4.94E-01,0.028
-4.94E-01,0.044
-4.94E-01,0.048
-4.93E-01,0.052
-4.93E-01,0.048
-4.93E-01,0.048
-4.93E-01,0.044
-4.93E-01,0.04
-4.92E-01,0.024
-4.92E-01,0.012
-4.92E-01,0
-4.92E-01,0.008
-4.92E-01,0.008
-4.91E-01,-0.012
-4.91E-01,-0.04
-4.91E-01,-0.032
-4.91E-01,-0.036
-4.91E-01,-0.024
-4.90E-01,-0.032
-4.90E-01,-0.036
-4.90E-01,-0.04
-4.90E-01,-0.028
-4.90E-01,-0.044
-4.89E-01,-0.048
-4.89E-01,-0.044
-4.89E-01,-0.056
-4.89E-01,-0.076
-4.89E-01,-0.068
-4.88E-01,-0.088
-4.88E-01,-0.092
-4.88E-01,-0.084
-4.88E-01,-0.108
-4.88E-01,-0.12
-4.87E-01,-0.136
-4.87E-01,-0.14
-4.87E-01,-0.136
-4.87E-01,-0.148
-4.87E-01,-0.152
-4.86E-01,-0.148
-4.86E-01,-0.168
-4.86E-01,-0.176
-4.86E-01,-0.164
-4.86E-01,-0.164
-4.85E-01,-0.18
-4.85E-01,-0.184
-4.85E-01,-0.192
-4.85E-01,-0.184
-4.85E-01,-0.188
-4.84E-01,-0.196
-4.84E-01,-0.188
-4.84E-01,-0.18
-4.84E-01,-0.176
-4.84E-01,-0.164
-4.83E-01,-0.16
-4.83E-01,-0.164
-4.83E-01,-0.132
-4.83E-01,-0.16
-4.83E-01,-0.148
-4.82E-01,-0.152
-4.82E-01,-0.164
-4.82E-01,-0.168
-4.82E-01,-0.16
-4.82E-01,-0.176
-4.81E-01,-0.176
-4.81E-01,-0.188
-4.81E-01,-0.18
-4.81E-01,-0.164
-4.81E-01,-0.192
-4.80E-01,-0.196
-4.80E-01,-0.184
-4.80E-01,-0.184
-4.80E-01,-0.196
-4.80E-01,-0.164
-4.79E-01,-0.164
-4.79E-01,-0.156
-4.79E-01,-0.148
-4.79E-01,-0.148
-4.79E-01,-0.144
-4.78E-01,-0.148
-4.78E-01,-0.124
-4.78E-01,-0.14
-4.78E-01,-0.136
-4.78E-01,-0.108
-4.77E-01,-0.08
-4.77E-01,-0.076
-4.77E-01,-0.056
-4.77E-01,-0.024
-4.77E-01,-0.012
-4.76E-01,0.008
-4.76E-01,0.028
-4.76E-01,0.032
-4.76E-01,0.044
-4.76E-01,0.036
-4.75E-01,0.04
-4.75E-01,0.048
-4.75E-01,0.06
-4.75E-01,0.04
-4.75E-01,0.048
-4.74E-01,0.06
-4.74E-01,0.076
-4.74E-01,0.08
-4.74E-01,0.092
-4.74E-01,0.08
-4.73E-01,0.072
-4.73E-01,0.064
-4.73E-01,0.056
-4.73E-01,0.044
-4.73E-01,0.032
-4.72E-01,0.02
-4.72E-01,-0.008
-4.72E-01,-0.032
-4.72E-01,-0.044
-4.72E-01,-0.056
-4.71E-01,-0.06
-4.71E-01,-0.088
-4.71E-01,-0.108
-4.71E-01,-0.116
-4.71E-01,-0.132
-4.70E-01,-0.152
-4.70E-01,-0.152
-4.70E-01,-0.172
-4.70E-01,-0.176
-4.70E-01,-0.18
-4.69E-01,-0.18
-4.69E-01,-0.176
-4.69E-01,-0.18
-4.69E-01,-0.196
-4.69E-01,-0.204
-4.68E-01,-0.184
-4.68E-01,-0.168
-4.68E-01,-0.168
-4.68E-01,-0.172
-4.68E-01,-0.164
-4.67E-01,-0.16
-4.67E-01,-0.156
-4.67E-01,-0.148
-4.67E-01,-0.152
-4.67E-01,-0.144
-4.66E-01,-0.128
-4.66E-01,-0.16
-4.66E-01,-0.168
-4.66E-01,-0.172
-4.66E-01,-0.184
-4.65E-01,-0.196
-4.65E-01,-0.196
-4.65E-01,-0.196
-4.65E-01,-0.208
-4.65E-01,-0.176
-4.64E-01,-0.176
-4.64E-01,-0.176
-4.64E-01,-0.176
-4.64E-01,-0.152
-4.64E-01,-0.128
-4.63E-01,-0.12
-4.63E-01,-0.132
-4.63E-01,-0.124
-4.63E-01,-0.124
-4.63E-01,-0.112
-4.62E-01,-0.12
-4.62E-01,-0.12
-4.62E-01,-0.1
-4.62E-01,-0.108
-4.62E-01,-0.108
-4.61E-01,-0.096
-4.61E-01,-0.088
-4.61E-01,-0.072
-4.61E-01,-0.06
-4.61E-01,-0.068
-4.60E-01,-0.048
-4.60E-01,-0.016
-4.60E-01,-0.024
-4.60E-01,-0.028
-4.60E-01,-0.028
-4.59E-01,-0.02
-4.59E-01,-0.012
-4.59E-01,0
-4.59E-01,-0.004
-4.59E-01,0.012
-4.58E-01,-0.004
-4.58E-01,-0.004
-4.58E-01,0
-4.58E-01,-0.012
-4.58E-01,-0.008
-4.57E-01,-0.012
-4.57E-01,-0.008
-4.57E-01,0.008
-4.57E-01,0.008
-4.57E-01,-0.02
-4.56E-01,0.016
-4.56E-01,0
-4.56E-01,-0.012
-4.56E-01,-0.016
-4.56E-01,0
-4.55E-01,-0.008
-4.55E-01,0
-4.55E-01,-0.012
-4.55E-01,-0.024
-4.55E-01,-0.008
-4.54E-01,-0.004
-4.54E-01,-0.032
-4.54E-01,0
-4.54E-01,0.004
-4.54E-01,-0.004
-4.53E-01,-0.004
-4.53E-01,-0.012
-4.53E-01,-0.016
-4.53E-01,-0.012
-4.53E-01,-0.032
-4.52E-01,-0.04
-4.52E-01,-0.052
-4.52E-01,-0.064
-4.52E-01,-0.072
-4.52E-01,-0.088
-4.51E-01,-0.108
-4.51E-01,-0.104
-4.51E-01,-0.108
-4.51E-01,-0.128
-4.51E-01,-0.124
-4.50E-01,-0.128
-4.50E-01,-0.108
-4.50E-01,-0.116
-4.50E-01,-0.128
-4.50E-01,-0.12
-4.49E-01,-0.124
-4.49E-01,-0.12
-4.49E-01,-0.116
-4.49E-01,-0.128
-4.49E-01,-0.112
-4.48E-01,-0.104
-4.48E-01,-0.12
-4.48E-01,-0.1
-4.48E-01,-0.1
-4.48E-01,-0.104
-4.47E-01,-0.096
-4.47E-01,-0.076
-4.47E-01,-0.06
-4.47E-01,-0.052
-4.47E-01,-0.024
-4.46E-01,-0.008
-4.46E-01,0
-4.46E-01,0.028
-4.46E-01,0.032
-4.46E-01,0.044
-4.45E-01,0.052
-4.45E-01,0.076
-4.45E-01,0.064
-4.45E-01,0.072
-4.45E-01,0.088
-4.44E-01,0.076
-4.44E-01,0.068
-4.44E-01,0.088
-4.44E-01,0.076
-4.44E-01,0.064
-4.43E-01,0.056
-4.43E-01,0.044
-4.43E-01,0.028
-4.43E-01,0.02
-4.43E-01,0.004
-4.42E-01,-0.004
-4.42E-01,-0.024
-4.42E-01,-0.024
-4.42E-01,-0.032
-4.42E-01,-0.028
-4.41E-01,-0.016
-4.41E-01,-0.012
-4.41E-01,0.008
-4.41E-01,0.028
-4.41E-01,0.032
-4.40E-01,0.056
-4.40E-01,0.084
-4.40E-01,0.088
-4.40E-01,0.096
-4.40E-01,0.112
-4.39E-01,0.1
-4.39E-01,0.108
-4.39E-01,0.112
-4.39E-01,0.096
-4.39E-01,0.088
-4.38E-01,0.092
-4.38E-01,0.076
-4.38E-01,0.076
-4.38E-01,0.088
-4.38E-01,0.056
-4.37E-01,0.06
-4.37E-01,0.044
-4.37E-01,0.028
-4.37E-01,0.032
-4.37E-01,0.016
-4.36E-01,0.004
-4.36E-01,-0.02
-4.36E-01,-0.06
-4.36E-01,-0.064
-4.36E-01,-0.076
-4.35E-01,-0.072
-4.35E-01,-0.096
-4.35E-01,-0.108
-4.35E-01,-0.112
-4.35E-01,-0.112
-4.34E-01,-0.12
-4.34E-01,-0.14
-4.34E-01,-0.12
-4.34E-01,-0.136
-4.34E-01,-0.144
-4.33E-01,-0.144
-4.33E-01,-0.164
-4.33E-01,-0.14
-4.33E-01,-0.144
-4.33E-01,-0.14
-4.32E-01,-0.136
-4.32E-01,-0.104
-4.32E-01,-0.096
-4.32E-01,-0.084
-4.32E-01,-0.076
-4.31E-01,-0.044
-4.31E-01,-0.044
-4.31E-01,-0.02
-4.31E-01,-0.004
-4.31E-01,0.004
-4.30E-01,0.016
-4.30E-01,0.024
-4.30E-01,0.02
-4.30E-01,0.032
-4.30E-01,0.028
-4.29E-01,0.024
-4.29E-01,0.048
-4.29E-01,0.044
-4.29E-01,0.012
-4.29E-01,0.044
-4.28E-01,0.04
-4.28E-01,0.044
-4.28E-01,0.06
-4.28E-01,0.048
-4.28E-01,0.04
-4.27E-01,0.068
-4.27E-01,0.04
-4.27E-01,0.04
-4.27E-01,0.048
-4.27E-01,0.024
-4.26E-01,0.028
-4.26E-01,0.008
-4.26E-01,0.016
-4.26E-01,0
-4.26E-01,0.012
-4.25E-01,0.028
-4.25E-01,0.008
-4.25E-01,0.008
-4.25E-01,0.02
-4.25E-01,0.028
-4.24E-01,0.02
-4.24E-01,0.04
-4.24E-01,0.032
-4.24E-01,0.028
-4.24E-01,0.048
-4.23E-01,0.052
-4.23E-01,0.036
-4.23E-01,0.036
-4.23E-01,0.048
-4.23E-01,0.044
-4.22E-01,0.052
-4.22E-01,0.056
-4.22E-01,0.056
-4.22E-01,0.06
-4.22E-01,0.056
-4.21E-01,0.056
-4.21E-01,0.056
-4.21E-01,0.064
-4.21E-01,0.048
-4.21E-01,0.056
-4.20E-01,0.032
-4.20E-01,0.024
-4.20E-01,0.044
-4.20E-01,0.04
-4.20E-01,0.024
-4.19E-01,0.02
-4.19E-01,0
-4.19E-01,0
-4.19E-01,-0.012
-4.19E-01,-0.02
-4.18E-01,-0.036
-4.18E-01,-0.028
-4.18E-01,-0.044
-4.18E-01,-0.032
-4.18E-01,-0.032
-4.17E-01,-0.044
-4.17E-01,-0.06
-4.17E-01,-0.068
-4.17E-01,-0.056
-4.17E-01,-0.084
-4.16E-01,-0.072
-4.16E-01,-0.068
-4.16E-01,-0.056
-4.16E-01,-0.056
-4.16E-01,-0.04
-4.15E-01,-0.036
-4.15E-01,-0.032
-4.15E-01,0
-4.15E-01,0.004
-4.15E-01,0.008
-4.14E-01,0.028
-4.14E-01,0.052
-4.14E-01,0.064
-4.14E-01,0.096
-4.14E-01,0.096
-4.13E-01,0.12
-4.13E-01,0.144
-4.13E-01,0.152
-4.13E-01,0.14
-4.13E-01,0.144
-4.12E-01,0.148
-4.12E-01,0.164
-4.12E-01,0.172
-4.12E-01,0.176
-4.12E-01,0.18
-4.11E-01,0.196
-4.11E-01,0.212
-4.11E-01,0.224
-4.11E-01,0.224
-4.11E-01,0.208
-4.10E-01,0.24
-4.10E-01,0.228
-4.10E-01,0.244
-4.10E-01,0.232
-4.10E-01,0.212
-4.09E-01,0.24
-4.09E-01,0.232
-4.09E-01,0.216
-4.09E-01,0.208
-4.09E-01,0.196
-4.08E-01,0.224
-4.08E-01,0.192
-4.08E-01,0.184
-4.08E-01,0.184
-4.08E-01,0.184
-4.07E-01,0.184
-4.07E-01,0.188
-4.07E-01,0.172
-4.07E-01,0.18
-4.07E-01,0.18
-4.06E-01,0.18
-4.06E-01,0.176
-4.06E-01,0.16
-4.06E-01,0.136
-4.06E-01,0.164
-4.05E-01,0.156
-4.05E-01,0.144
-4.05E-01,0.144
-4.05E-01,0.136
-4.05E-01,0.128
-4.04E-01,0.136
-4.04E-01,0.124
-4.04E-01,0.124
-4.04E-01,0.108
-4.04E-01,0.096
-4.03E-01,0.088
-4.03E-01,0.072
-4.03E-01,0.052
-4.03E-01,0.064
-4.03E-01,0.04
-4.02E-01,0.028
-4.02E-01,0.032
-4.02E-01,0.048
-4.02E-01,0.032
-4.02E-01,0.02
-4.01E-01,0.016
-4.01E-01,0.032
-4.01E-01,0.048
-4.01E-01,0.028
-4.01E-01,0.032
-4.00E-01,0.02
-4.00E-01,0.016
-4.00E-01,0.008
-4.00E-01,-0.016
-4.00E-01,0.004
-3.99E-01,0.008
-3.99E-01,0.008
-3.99E-01,0
-3.99E-01,-0.012
-3.99E-01,-0.02
-3.98E-01,-0.004
-3.98E-01,-0.024
-3.98E-01,-0.032
-3.98E-01,-0.024
-3.98E-01,-0.004
-3.97E-01,-0.016
-3.97E-01,-0.02
-3.97E-01,-0.028
-3.97E-01,-0.024
-3.97E-01,-0.032
-3.96E-01,-0.024
-3.96E-01,-0.044
-3.96E-01,-0.02
-3.96E-01,-0.02
-3.96E-01,-0.004
-3.95E-01,0
-3.95E-01,0.012
-3.95E-01,0.02
-3.95E-01,0.032
-3.95E-01,0.056
-3.94E-01,0.088
-3.94E-01,0.072
-3.94E-01,0.096
-3.94E-01,0.112
-3.94E-01,0.104
-3.93E-01,0.12
-3.93E-01,0.144
-3.93E-01,0.156
-3.93E-01,0.176
-3.93E-01,0.192
-3.92E-01,0.212
-3.92E-01,0.208
-3.92E-01,0.244
-3.92E-01,0.264
-3.92E-01,0.244
-3.91E-01,0.264
-3.91E-01,0.272
-3.91E-01,0.272
-3.91E-01,0.272
-3.91E-01,0.28
-3.90E-01,0.252
-3.90E-01,0.272
-3.90E-01,0.256
-3.90E-01,0.248
-3.90E-01,0.248
-3.89E-01,0.248
-3.89E-01,0.228
-3.89E-01,0.22
-3.89E-01,0.208
-3.89E-01,0.176
-3.88E-01,0.172
-3.88E-01,0.184
-3.88E-01,0.188
-3.88E-01,0.176
-3.88E-01,0.18
-3.87E-01,0.164
-3.87E-01,0.176
-3.87E-01,0.156
-3.87E-01,0.144
-3.87E-01,0.14
-3.86E-01,0.144
-3.86E-01,0.148
-3.86E-01,0.12
-3.86E-01,0.128
-3.86E-01,0.132
-3.85E-01,0.128
-3.85E-01,0.116
-3.85E-01,0.124
-3.85E-01,0.124
-3.85E-01,0.132
-3.84E-01,0.128
-3.84E-01,0.104
-3.84E-01,0.112
-3.84E-01,0.1
-3.84E-01,0.08
-3.83E-01,0.072
-3.83E-01,0.064
-3.83E-01,0.06
-3.83E-01,0.076
-3.83E-01,0.072
-3.82E-01,0.064
-3.82E-01,0.088
-3.82E-01,0.1
-3.82E-01,0.092
-3.82E-01,0.092
-3.81E-01,0.108
-3.81E-01,0.108
-3.81E-01,0.132
-3.81E-01,0.124
-3.81E-01,0.112
-3.80E-01,0.12
-3.80E-01,0.12
-3.80E-01,0.112
-3.80E-01,0.108
-3.80E-01,0.108
-3.79E-01,0.124
-3.79E-01,0.12
-3.79E-01,0.116
-3.79E-01,0.112
-3.79E-01,0.132
-3.78E-01,0.14
-3.78E-01,0.136
-3.78E-01,0.148
-3.78E-01,0.168
-3.78E-01,0.156
-3.77E-01,0.2
-3.77E-01,0.18
-3.77E-01,0.184
-3.77E-01,0.196
-3.77E-01,0.2
-3.76E-01,0.232
-3.76E-01,0.224
-3.76E-01,0.224
-3.76E-01,0.212
-3.76E-01,0.228
-3.75E-01,0.228
-3.75E-01,0.2
-3.75E-01,0.208
-3.75E-01,0.184
-3.75E-01,0.196
-3.74E-01,0.196
-3.74E-01,0.176
-3.74E-01,0.196
-3.74E-01,0.212
-3.74E-01,0.192
-3.73E-01,0.196
-3.73E-01,0.18
-3.73E-01,0.172
-3.73E-01,0.156
-3.73E-01,0.16
-3.72E-01,0.148
-3.72E-01,0.144
-3.72E-01,0.144
-3.72E-01,0.12
-3.72E-01,0.124
-3.71E-01,0.12
-3.71E-01,0.088
-3.71E-01,0.104
-3.71E-01,0.088
-3.71E-01,0.092
-3.70E-01,0.084
-3.70E-01,0.076
-3.70E-01,0.052
-3.70E-01,0.016
-3.70E-01,0.008
-3.69E-01,0.004
-3.69E-01,-0.004
-3.69E-01,-0.004
-3.69E-01,-0.02
-3.69E-01,-0.02
-3.68E-01,-0.032
-3.68E-01,-0.048
-3.68E-01,-0.044
-3.68E-01,-0.04
-3.68E-01,-0.072
-3.67E-01,-0.052
-3.67E-01,-0.072
-3.67E-01,-0.076
-3.67E-01,-0.076
-3.67E-01,-0.064
-3.66E-01,-0.08
-3.66E-01,-0.064
-3.66E-01,-0.052
-3.66E-01,-0.04
-3.66E-01,-0.02
-3.65E-01,-0.016
-3.65E-01,-0.024
-3.65E-01,0
-3.65E-01,0.032
-3.65E-01,0.036
-3.64E-01,0.036
-3.64E-01,0.072
-3.64E-01,0.064
-3.64E-01,0.08
-3.64E-01,0.068
-3.63E-01,0.096
-3.63E-01,0.112
-3.63E-01,0.124
-3.63E-01,0.132
-3.63E-01,0.12
-3.62E-01,0.136
-3.62E-01,0.16
-3.62E-01,0.172
-3.62E-01,0.192
-3.62E-01,0.192
-3.61E-01,0.204
-3.61E-01,0.216
-3.61E-01,0.228
-3.61E-01,0.24
-3.61E-01,0.224
-3.60E-01,0.22
-3.60E-01,0.228
-3.60E-01,0.228
-3.60E-01,0.232
-3.60E-01,0.216
-3.59E-01,0.216
-3.59E-01,0.216
-3.59E-01,0.216
-3.59E-01,0.192
-3.59E-01,0.192
-3.58E-01,0.188
-3.58E-01,0.184
-3.58E-01,0.16
-3.58E-01,0.156
-3.58E-01,0.148
-3.57E-01,0.136
-3.57E-01,0.144
-3.57E-01,0.128
-3.57E-01,0.136
-3.57E-01,0.128
-3.56E-01,0.132
-3.56E-01,0.104
-3.56E-01,0.104
-3.56E-01,0.1
-3.56E-01,0.076
-3.55E-01,0.092
-3.55E-01,0.06
-3.55E-01,0.056
-3.55E-01,0.04
-3.55E-01,0.024
-3.54E-01,0.024
-3.54E-01,0
-3.54E-01,-0.02
-3.54E-01,-0.012
-3.54E-01,-0.016
-3.53E-01,-0.028
-3.53E-01,-0.036
-3.53E-01,-0.04
-3.53E-01,-0.024
-3.53E-01,-0.032
-3.52E-01,-0.024
-3.52E-01,-0.02
-3.52E-01,-0.02
-3.52E-01,-0.012
-3.52E-01,-0.02
-3.51E-01,-0.008
-3.51E-01,-0.008
-3.51E-01,0.008
-3.51E-01,0.008
-3.51E-01,0.008
-3.50E-01,0.036
-3.50E-01,0.016
-3.50E-01,0.028
-3.50E-01,0.028
-3.50E-01,0.012
-3.49E-01,0.04
-3.49E-01,0.056
-3.49E-01,0.04
-3.49E-01,0.06
-3.49E-01,0.056
-3.48E-01,0.072
-3.48E-01,0.064
-3.48E-01,0.072
-3.48E-01,0.076
-3.48E-01,0.096
-3.47E-01,0.108
-3.47E-01,0.096
-3.47E-01,0.108
-3.47E-01,0.136
-3.47E-01,0.132
-3.46E-01,0.132
-3.46E-01,0.132
-3.46E-01,0.152
-3.46E-01,0.152
-3.46E-01,0.152
-3.45E-01,0.152
-3.45E-01,0.132
-3.45E-01,0.16
-3.45E-01,0.152
-3.45E-01,0.124
-3.44E-01,0.136
-3.44E-01,0.128
-3.44E-01,0.116
-3.44E-01,0.116
-3.44E-01,0.12
-3.43E-01,0.12
-3.43E-01,0.112
-3.43E-01,0.136
-3.43E-01,0.136
-3.43E-01,0.116
-3.42E-01,0.132
-3.42E-01,0.112
-3.42E-01,0.124
-3.42E-01,0.12
-3.42E-01,0.116
-3.41E-01,0.112
-3.41E-01,0.132
-3.41E-01,0.144
-3.41E-01,0.124
-3.41E-01,0.116
-3.40E-01,0.128
-3.40E-01,0.124
-3.40E-01,0.124
-3.40E-01,0.116
-3.40E-01,0.12
-3.39E-01,0.104
-3.39E-01,0.108
-3.39E-01,0.092
-3.39E-01,0.076
-3.39E-01,0.072
-3.38E-01,0.068
-3.38E-01,0.056
-3.38E-01,0.052
-3.38E-01,0.044
-3.38E-01,0.036
-3.37E-01,0.032
-3.37E-01,0.028
-3.37E-01,0.024
-3.37E-01,0.016
-3.37E-01,0.004
-3.36E-01,-0.016
-3.36E-01,-0.036
-3.36E-01,-0.064
-3.36E-01,-0.072
-3.36E-01,-0.072
-3.35E-01,-0.096
-3.35E-01,-0.112
-3.35E-01,-0.112
-3.35E-01,-0.136
-3.35E-01,-0.136
-3.34E-01,-0.136
-3.34E-01,-0.152
-3.34E-01,-0.156
-3.34E-01,-0.132
-3.34E-01,-0.14
-3.33E-01,-0.148
-3.33E-01,-0.128
-3.33E-01,-0.124
-3.33E-01,-0.124
-3.33E-01,-0.124
-3.32E-01,-0.144
-3.32E-01,-0.116
-3.32E-01,-0.108
-3.32E-01,-0.088
-3.32E-01,-0.096
-3.31E-01,-0.088
-3.31E-01,-0.072
-3.31E-01,-0.064
-3.31E-01,-0.06
-3.31E-01,-0.048
-3.30E-01,-0.044
-3.30E-01,-0.044
-3.30E-01,-0.016
-3.30E-01,-0.036
-3.30E-01,-0.04
-3.29E-01,-0.008
-3.29E-01,-0.012
-3.29E-01,-0.012
-3.29E-01,-0.008
-3.29E-01,0
-3.28E-01,-0.012
-3.28E-01,0.008
-3.28E-01,-0.004
-3.28E-01,0.02
-3.28E-01,0.008
-3.27E-01,0.036
-3.27E-01,0.028
-3.27E-01,0.032
-3.27E-01,0.04
-3.27E-01,0.04
-3.26E-01,0.072
-3.26E-01,0.068
-3.26E-01,0.064
-3.26E-01,0.064
-3.26E-01,0.072
-3.25E-01,0.076
-3.25E-01,0.072
-3.25E-01,0.072
-3.25E-01,0.072
-3.25E-01,0.064
-3.24E-01,0.076
-3.24E-01,0.068
-3.24E-01,0.048
-3.24E-01,0.068
-3.24E-01,0.072
-3.23E-01,0.08
-3.23E-01,0.08
-3.23E-01,0.084
-3.23E-01,0.072
-3.23E-01,0.056
-3.22E-01,0.052
-3.22E-01,0.028
-3.22E-01,0.036
-3.22E-01,0.02
-3.22E-01,-0.004
-3.21E-01,0.016
-3.21E-01,0.016
-3.21E-01,0.032
-3.21E-01,0.024
-3.21E-01,0.036
-3.20E-01,0.044
-3.20E-01,0.032
-3.20E-01,0.032
-3.20E-01,0.044
-3.20E-01,0.024
-3.19E-01,0.024
-3.19E-01,0.012
-3.19E-01,0
-3.19E-01,-0.02
-3.19E-01,-0.02
-3.18E-01,-0.016
-3.18E-01,-0.024
-3.18E-01,-0.04
-3.18E-01,-0.044
-3.18E-01,-0.06
-3.17E-01,-0.064
-3.17E-01,-0.096
-3.17E-01,-0.1
-3.17E-01,-0.12
-3.17E-01,-0.12
-3.16E-01,-0.1
-3.16E-01,-0.108
-3.16E-01,-0.112
-3.16E-01,-0.104
-3.16E-01,-0.088
-3.15E-01,-0.084
-3.15E-01,-0.06
-3.15E-01,-0.072
-3.15E-01,-0.068
-3.15E-01,-0.06
-3.14E-01,-0.06
-3.14E-01,-0.068
-3.14E-01,-0.052
-3.14E-01,-0.04
-3.14E-01,-0.044
-3.13E-01,-0.028
-3.13E-01,-0.012
-3.13E-01,-0.012
-3.13E-01,0
-3.13E-01,0.036
-3.12E-01,0.012
-3.12E-01,0.036
-3.12E-01,0.056
-3.12E-01,0.044
-3.12E-01,0.088
-3.11E-01,0.108
-3.11E-01,0.116
-3.11E-01,0.132
-3.11E-01,0.132
-3.11E-01,0.136
-3.10E-01,0.148
-3.10E-01,0.156
-3.10E-01,0.16
-3.10E-01,0.16
-3.10E-01,0.168
-3.09E-01,0.172
-3.09E-01,0.16
-3.09E-01,0.168
-3.09E-01,0.172
-3.09E-01,0.192
-3.08E-01,0.184
-3.08E-01,0.216
-3.08E-01,0.204
-3.08E-01,0.196
-3.08E-01,0.196
-3.07E-01,0.196
-3.07E-01,0.18
-3.07E-01,0.16
-3.07E-01,0.148
-3.07E-01,0.144
-3.06E-01,0.132
-3.06E-01,0.116
-3.06E-01,0.092
-3.06E-01,0.088
-3.06E-01,0.08
-3.05E-01,0.076
-3.05E-01,0.068
-3.05E-01,0.072
-3.05E-01,0.064
-3.05E-01,0.06
-3.04E-01,0.06
-3.04E-01,0.044
-3.04E-01,0.048
-3.04E-01,0.052
-3.04E-01,0.024
-3.03E-01,0.024
-3.03E-01,0.012
-3.03E-01,0
-3.03E-01,-0.004
-3.03E-01,-0.008
-3.02E-01,-0.036
-3.02E-01,-0.024
-3.02E-01,-0.024
-3.02E-01,-0.032
-3.02E-01,-0.052
-3.01E-01,-0.044
-3.01E-01,-0.056
-3.01E-01,-0.056
-3.01E-01,-0.052
-3.01E-01,-0.084
-3.00E-01,-0.088
-3.00E-01,-0.088
-3.00E-01,-0.104
-3.00E-01,-0.112
-3.00E-01,-0.116
-2.99E-01,-0.108
-2.99E-01,-0.08
-2.99E-01,-0.096
-2.99E-01,-0.084
-2.99E-01,-0.096
-2.98E-01,-0.084
-2.98E-01,-0.116
-2.98E-01,-0.12
-2.98E-01,-0.112
-2.98E-01,-0.12
-2.97E-01,-0.108
-2.97E-01,-0.112
-2.97E-01,-0.12
-2.97E-01,-0.12
-2.97E-01,-0.108
-2.96E-01,-0.108
-2.96E-01,-0.116
-2.96E-01,-0.092
-2.96E-01,-0.096
-2.96E-01,-0.076
-2.95E-01,-0.084
-2.95E-01,-0.076
-2.95E-01,-0.072
-2.95E-01,-0.04
-2.95E-01,-0.04
-2.94E-01,-0.044
-2.94E-01,-0.032
-2.94E-01,-0.024
-2.94E-01,-0.016
-2.94E-01,-0.02
-2.93E-01,-0.008
-2.93E-01,0.008
-2.93E-01,0.004
-2.93E-01,0.028
-2.93E-01,0.028
-2.92E-01,0.044
-2.92E-01,0.064
-2.92E-01,0.072
-2.92E-01,0.084
-2.92E-01,0.096
-2.91E-01,0.104
-2.91E-01,0.128
-2.91E-01,0.148
-2.91E-01,0.152
-2.91E-01,0.148
-2.90E-01,0.144
-2.90E-01,0.168
-2.90E-01,0.164
-2.90E-01,0.144
-2.90E-01,0.136
-2.89E-01,0.128
-2.89E-01,0.104
-2.89E-01,0.088
-2.89E-01,0.08
-2.89E-01,0.064
-2.88E-01,0.076
-2.88E-01,0.072
-2.88E-01,0.06
-2.88E-01,0.048
-2.88E-01,0.048
-2.87E-01,0.036
-2.87E-01,0.02
-2.87E-01,0.02
-2.87E-01,0
-2.87E-01,0
-2.86E-01,-0.028
-2.86E-01,-0.048
-2.86E-01,-0.044
-2.86E-01,-0.06
-2.86E-01,-0.068
-2.85E-01,-0.052
-2.85E-01,-0.056
-2.85E-01,-0.056
-2.85E-01,-0.056
-2.85E-01,-0.084
-2.84E-01,-0.08
-2.84E-01,-0.088
-2.84E-01,-0.076
-2.84E-01,-0.092
-2.84E-01,-0.076
-2.83E-01,-0.096
-2.83E-01,-0.096
-2.83E-01,-0.092
-2.83E-01,-0.088
-2.83E-01,-0.084
-2.82E-01,-0.068
-2.82E-01,-0.068
-2.82E-01,-0.052
-2.82E-01,-0.06
-2.82E-01,-0.056
-2.81E-01,-0.064
-2.81E-01,-0.056
-2.81E-01,-0.044
-2.81E-01,-0.048
-2.81E-01,-0.048
-2.80E-01,-0.024
-2.80E-01,-0.024
-2.80E-01,-0.024
-2.80E-01,-0.024
-2.80E-01,-0.024
-2.79E-01,-0.012
-2.79E-01,0
-2.79E-01,0
-2.79E-01,-0.012
-2.79E-01,0.012
-2.78E-01,0.004
-2.78E-01,0.008
-2.78E-01,0.008
-2.78E-01,0.04
-2.78E-01,0.044
-2.77E-01,0.076
-2.77E-01,0.088
-2.77E-01,0.092
-2.77E-01,0.104
-2.77E-01,0.12
-2.76E-01,0.116
-2.76E-01,0.12
-2.76E-01,0.112
-2.76E-01,0.132
-2.76E-01,0.128
-2.75E-01,0.132
-2.75E-01,0.112
-2.75E-01,0.104
-2.75E-01,0.108
-2.75E-01,0.104
-2.74E-01,0.096
-2.74E-01,0.092
-2.74E-01,0.084
-2.74E-01,0.104
-2.74E-01,0.096
-2.73E-01,0.088
-2.73E-01,0.064
-2.73E-01,0.072
-2.73E-01,0.076
-2.73E-01,0.052
-2.72E-01,0.044
-2.72E-01,0.06
-2.72E-01,0.056
-2.72E-01,0.068
-2.72E-01,0.06
-2.71E-01,0.06
-2.71E-01,0.072
-2.71E-01,0.076
-2.71E-01,0.052
-2.71E-01,0.048
-2.70E-01,0.044
-2.70E-01,0.036
-2.70E-01,-0.008
-2.70E-01,0
-2.70E-01,-0.032
-2.69E-01,-0.036
-2.69E-01,-0.044
-2.69E-01,-0.068
-2.69E-01,-0.068
-2.69E-01,-0.08
-2.68E-01,-0.08
-2.68E-01,-0.076
-2.68E-01,-0.072
-2.68E-01,-0.084
-2.68E-01,-0.056
-2.67E-01,-0.064
-2.67E-01,-0.072
-2.67E-01,-0.044
-2.67E-01,-0.04
-2.67E-01,-0.036
-2.66E-01,-0.028
-2.66E-01,-0.044
-2.66E-01,-0.028
-2.66E-01,-0.016
-2.66E-01,-0.012
-2.65E-01,-0.032
-2.65E-01,-0.028
-2.65E-01,0.008
-2.65E-01,0
-2.65E-01,-0.016
-2.64E-01,0
-2.64E-01,0.024
-2.64E-01,0.008
-2.64E-01,0.04
-2.64E-01,0.02
-2.63E-01,0.024
-2.63E-01,0.036
-2.63E-01,0.052
-2.63E-01,0.032
-2.63E-01,0.032
-2.62E-01,0.04
-2.62E-01,0.06
-2.62E-01,0.064
-2.62E-01,0.06
-2.62E-01,0.048
-2.61E-01,0.06
-2.61E-01,0.064
-2.61E-01,0.052
-2.61E-01,0.044
-2.61E-01,0.052
-2.60E-01,0.072
-2.60E-01,0.06
-2.60E-01,0.06
-2.60E-01,0.06
-2.60E-01,0.06
-2.59E-01,0.076
-2.59E-01,0.06
-2.59E-01,0.072
-2.59E-01,0.064
-2.59E-01,0.088
-2.58E-01,0.092
-2.58E-01,0.084
-2.58E-01,0.084
-2.58E-01,0.068
-2.58E-01,0.064
-2.57E-01,0.072
-2.57E-01,0.072
-2.57E-01,0.052
-2.57E-01,0.04
-2.57E-01,0.036
-2.56E-01,0.032
-2.56E-01,0.028
-2.56E-01,0.008
-2.56E-01,-0.008
-2.56E-01,0
-2.55E-01,-0.02
-2.55E-01,-0.048
-2.55E-01,-0.056
-2.55E-01,-0.056
-2.55E-01,-0.068
-2.54E-01,-0.084
-2.54E-01,-0.108
-2.54E-01,-0.12
-2.54E-01,-0.12
-2.54E-01,-0.132
-2.53E-01,-0.156
-2.53E-01,-0.144
-2.53E-01,-0.18
-2.53E-01,-0.188
-2.53E-01,-0.184
-2.52E-01,-0.184
-2.52E-01,-0.176
-2.52E-01,-0.164
-2.52E-01,-0.164
-2.52E-01,-0.156
-2.51E-01,-0.136
-2.51E-01,-0.132
-2.51E-01,-0.14
-2.51E-01,-0.124
-2.51E-01,-0.112
-2.50E-01,-0.124
-2.50E-01,-0.108
-2.50E-01,-0.112
-2.50E-01,-0.1
-2.50E-01,-0.088
-2.49E-01,-0.08
-2.49E-01,-0.084
-2.49E-01,-0.064
-2.49E-01,-0.044
-2.49E-01,-0.044
-2.48E-01,-0.044
-2.48E-01,-0.008
-2.48E-01,-0.016
-2.48E-01,-0.016
-2.48E-01,-0.004
-2.47E-01,0.008
-2.47E-01,0.016
-2.47E-01,0.024
-2.47E-01,0.032
-2.47E-01,0.036
-2.46E-01,0.056
-2.46E-01,0.04
-2.46E-01,0.048
-2.46E-01,0.068
-2.46E-01,0.06
-2.45E-01,0.064
-2.45E-01,0.084
-2.45E-01,0.092
-2.45E-01,0.1
-2.45E-01,0.12
-2.44E-01,0.116
-2.44E-01,0.144
-2.44E-01,0.16
-2.44E-01,0.168
-2.44E-01,0.164
-2.43E-01,0.152
-2.43E-01,0.168
-2.43E-01,0.18
-2.43E-01,0.152
-2.43E-01,0.16
-2.42E-01,0.16
-2.42E-01,0.132
-2.42E-01,0.128
-2.42E-01,0.12
-2.42E-01,0.108
-2.41E-01,0.108
-2.41E-01,0.096
-2.41E-01,0.068
-2.41E-01,0.08
-2.41E-01,0.06
-2.40E-01,0.048
-2.40E-01,0.052
-2.40E-01,0.068
-2.40E-01,0.048
-2.40E-01,0.04
-2.39E-01,0.056
-2.39E-01,0.056
-2.39E-01,0.04
-2.39E-01,0.036
-2.39E-01,0.016
-2.38E-01,0.012
-2.38E-01,0.024
-2.38E-01,0.044
-2.38E-01,0.004
-2.38E-01,0.012
-2.37E-01,0.008
-2.37E-01,-0.016
-2.37E-01,-0.02
-2.37E-01,-0.008
-2.37E-01,-0.032
-2.36E-01,-0.044
-2.36E-01,-0.04
-2.36E-01,-0.036
-2.36E-01,-0.024
-2.36E-01,-0.044
-2.35E-01,-0.02
-2.35E-01,-0.024
-2.35E-01,-0.024
-2.35E-01,-0.028
-2.35E-01,-0.024
-2.34E-01,-0.032
-2.34E-01,-0.028
-2.34E-01,-0.024
-2.34E-01,-0.032
-2.34E-01,-0.044
-2.33E-01,-0.044
-2.33E-01,-0.06
-2.33E-01,-0.06
-2.33E-01,-0.06
-2.33E-01,-0.048
-2.32E-01,-0.052
-2.32E-01,-0.036
-2.32E-01,-0.04
-2.32E-01,-0.044
-2.32E-01,-0.012
-2.31E-01,-0.008
-2.31E-01,-0.02
-2.31E-01,0.004
-2.31E-01,0.008
-2.31E-01,0.012
-2.30E-01,0.004
-2.30E-01,0.02
-2.30E-01,0.012
-2.30E-01,0.012
-2.30E-01,0.02
-2.29E-01,0.024
-2.29E-01,0.008
-2.29E-01,0.008
-2.29E-01,-0.012
-2.29E-01,-0.004
-2.28E-01,0.016
-2.28E-01,0.012
-2.28E-01,0.004
-2.28E-01,0.02
-2.28E-01,0.036
-2.27E-01,0.044
-2.27E-01,0.072
-2.27E-01,0.084
-2.27E-01,0.084
-2.27E-01,0.104
-2.26E-01,0.124
-2.26E-01,0.112
-2.26E-01,0.112
-2.26E-01,0.116
-2.26E-01,0.116
-2.25E-01,0.108
-2.25E-01,0.1
-2.25E-01,0.096
-2.25E-01,0.084
-2.25E-01,0.096
-2.24E-01,0.088
-2.24E-01,0.08
-2.24E-01,0.048
-2.24E-01,0.06
-2.24E-01,0.056
-2.23E-01,0.052
-2.23E-01,0.036
-2.23E-01,0.024
-2.23E-01,0.04
-2.23E-01,0.04
-2.22E-01,0.032
-2.22E-01,0.02
-2.22E-01,0.024
-2.22E-01,0.012
-2.22E-01,0.016
-2.21E-01,0.012
-2.21E-01,0.024
-2.21E-01,0.036
-2.21E-01,0.02
-2.21E-01,0
-2.20E-01,-0.004
-2.20E-01,-0.012
-2.20E-01,-0.032
-2.20E-01,-0.048
-2.20E-01,-0.048
-2.19E-01,-0.06
-2.19E-01,-0.068
-2.19E-01,-0.088
-2.19E-01,-0.108
-2.19E-01,-0.108
-2.18E-01,-0.108
-2.18E-01,-0.116
-2.18E-01,-0.12
-2.18E-01,-0.088
-2.18E-01,-0.092
-2.17E-01,-0.088
-2.17E-01,-0.092
-2.17E-01,-0.076
-2.17E-01,-0.088
-2.17E-01,-0.072
-2.16E-01,-0.076
-2.16E-01,-0.06
-2.16E-01,-0.068
-2.16E-01,-0.064
-2.16E-01,-0.06
-2.15E-01,-0.072
-2.15E-01,-0.06
-2.15E-01,-0.056
-2.15E-01,-0.036
-2.15E-01,-0.024
-2.14E-01,-0.012
-2.14E-01,0.004
-2.14E-01,0.024
-2.14E-01,0.032
-2.14E-01,0.036
-2.13E-01,0.052
-2.13E-01,0.04
-2.13E-01,0.076
-2.13E-01,0.06
-2.13E-01,0.072
-2.12E-01,0.08
-2.12E-01,0.096
-2.12E-01,0.092
-2.12E-01,0.112
-2.12E-01,0.112
-2.11E-01,0.108
-2.11E-01,0.112
-2.11E-01,0.116
-2.11E-01,0.112
-2.11E-01,0.108
-2.10E-01,0.128
-2.10E-01,0.128
-2.10E-01,0.124
-2.10E-01,0.108
-2.10E-01,0.128
-2.09E-01,0.12
-2.09E-01,0.128
-2.09E-01,0.128
-2.09E-01,0.116
-2.09E-01,0.128
-2.08E-01,0.12
-2.08E-01,0.128
-2.08E-01,0.108
-2.08E-01,0.132
-2.08E-01,0.12
-2.07E-01,0.108
-2.07E-01,0.112
-2.07E-01,0.1
-2.07E-01,0.092
-2.07E-01,0.068
-2.06E-01,0.064
-2.06E-01,0.04
-2.06E-01,0.02
-2.06E-01,0.02
-2.06E-01,0
-2.05E-01,-0.008
-2.05E-01,-0.028
-2.05E-01,-0.048
-2.05E-01,-0.044
-2.05E-01,-0.048
-2.04E-01,-0.096
-2.04E-01,-0.116
-2.04E-01,-0.112
-2.04E-01,-0.116
-2.04E-01,-0.136
-2.03E-01,-0.14
-2.03E-01,-0.156
-2.03E-01,-0.144
-2.03E-01,-0.144
-2.03E-01,-0.168
-2.02E-01,-0.164
-2.02E-01,-0.16
-2.02E-01,-0.168
-2.02E-01,-0.156
-2.02E-01,-0.16
-2.01E-01,-0.144
-2.01E-01,-0.136
-2.01E-01,-0.128
-2.01E-01,-0.124
-2.01E-01,-0.112
-2.00E-01,-0.112
-2.00E-01,-0.108
-2.00E-01,-0.112
-2.00E-01,-0.108
-2.00E-01,-0.1
-1.99E-01,-0.1
-1.99E-01,-0.088
-1.99E-01,-0.108
-1.99E-01,-0.096
-1.99E-01,-0.092
-1.98E-01,-0.1
-1.98E-01,-0.08
-1.98E-01,-0.072
-1.98E-01,-0.044
-1.98E-01,-0.04
-1.97E-01,-0.028
-1.97E-01,0.004
-1.97E-01,0.008
-1.97E-01,0.04
-1.97E-01,0.048
-1.96E-01,0.048
-1.96E-01,0.044
-1.96E-01,0.044
-1.96E-01,0.044
-1.96E-01,0.04
-1.95E-01,0.008
-1.95E-01,0.028
-1.95E-01,0.016
-1.95E-01,0.016
-1.95E-01,0.016
-1.94E-01,0.032
-1.94E-01,0.02
-1.94E-01,0.028
-1.94E-01,0.036
-1.94E-01,0.052
-1.93E-01,0.036
-1.93E-01,0.04
-1.93E-01,0.056
-1.93E-01,0.068
-1.93E-01,0.06
-1.92E-01,0.072
-1.92E-01,0.092
-1.92E-01,0.088
-1.92E-01,0.104
-1.92E-01,0.116
-1.91E-01,0.108
-1.91E-01,0.108
-1.91E-01,0.112
-1.91E-01,0.108
-1.91E-01,0.104
-1.90E-01,0.104
-1.90E-01,0.112
-1.90E-01,0.108
-1.90E-01,0.112
-1.90E-01,0.112
-1.89E-01,0.112
-1.89E-01,0.112
-1.89E-01,0.116
-1.89E-01,0.128
-1.89E-01,0.132
-1.88E-01,0.136
-1.88E-01,0.14
-1.88E-01,0.144
-1.88E-01,0.128
-1.88E-01,0.12
-1.87E-01,0.128
-1.87E-01,0.108
-1.87E-01,0.092
-1.87E-01,0.076
-1.87E-01,0.056
-1.86E-01,0.032
-1.86E-01,0.008
-1.86E-01,-0.012
-1.86E-01,0
-1.86E-01,-0.024
-1.85E-01,-0.052
-1.85E-01,-0.064
-1.85E-01,-0.072
-1.85E-01,-0.072
-1.85E-01,-0.108
-1.84E-01,-0.112
-1.84E-01,-0.136
-1.84E-01,-0.132
-1.84E-01,-0.132
-1.84E-01,-0.148
-1.83E-01,-0.168
-1.83E-01,-0.148
-1.83E-01,-0.164
-1.83E-01,-0.168
-1.83E-01,-0.176
-1.82E-01,-0.168
-1.82E-01,-0.176
-1.82E-01,-0.156
-1.82E-01,-0.152
-1.82E-01,-0.144
-1.81E-01,-0.136
-1.81E-01,-0.108
-1.81E-01,-0.128
-1.81E-01,-0.096
-1.81E-01,-0.088
-1.80E-01,-0.056
-1.80E-01,-0.044
-1.80E-01,0
-1.80E-01,-0.012
-1.80E-01,0.008
-1.79E-01,0.032
-1.79E-01,0.048
-1.79E-01,0.056
-1.79E-01,0.072
-1.79E-01,0.072
-1.78E-01,0.076
-1.78E-01,0.088
-1.78E-01,0.088
-1.78E-01,0.084
-1.78E-01,0.1
-1.77E-01,0.084
-1.77E-01,0.092
-1.77E-01,0.084
-1.77E-01,0.092
-1.77E-01,0.088
-1.76E-01,0.088
-1.76E-01,0.088
-1.76E-01,0.088
-1.76E-01,0.096
-1.76E-01,0.112
-1.75E-01,0.12
-1.75E-01,0.112
-1.75E-01,0.128
-1.75E-01,0.12
-1.75E-01,0.12
-1.74E-01,0.128
-1.74E-01,0.144
-1.74E-01,0.132
-1.74E-01,0.144
-1.74E-01,0.16
-1.73E-01,0.188
-1.73E-01,0.172
-1.73E-01,0.176
-1.73E-01,0.18
-1.73E-01,0.16
-1.72E-01,0.168
-1.72E-01,0.176
-1.72E-01,0.168
-1.72E-01,0.188
-1.72E-01,0.168
-1.71E-01,0.152
-1.71E-01,0.148
-1.71E-01,0.152
-1.71E-01,0.14
-1.71E-01,0.12
-1.70E-01,0.108
-1.70E-01,0.104
-1.70E-01,0.08
-1.70E-01,0.06
-1.70E-01,0.04
-1.69E-01,0.02
-1.69E-01,0.008
-1.69E-01,-0.012
-1.69E-01,-0.02
-1.69E-01,-0.032
-1.68E-01,-0.032
-1.68E-01,-0.044
-1.68E-01,-0.064
-1.68E-01,-0.048
-1.68E-01,-0.04
-1.67E-01,-0.056
-1.67E-01,-0.052
-1.67E-01,-0.056
-1.67E-01,-0.048
-1.67E-01,-0.04
-1.66E-01,-0.06
-1.66E-01,-0.048
-1.66E-01,-0.036
-1.66E-01,-0.036
-1.66E-01,-0.036
-1.65E-01,-0.04
-1.65E-01,-0.028
-1.65E-01,-0.024
-1.65E-01,-0.012
-1.65E-01,-0.012
-1.64E-01,0
-1.64E-01,-0.004
-1.64E-01,-0.004
-1.64E-01,0
-1.64E-01,-0.032
-1.63E-01,-0.004
-1.63E-01,-0.004
-1.63E-01,-0.012
-1.63E-01,-0.02
-1.63E-01,-0.032
-1.62E-01,-0.052
-1.62E-01,-0.048
-1.62E-01,-0.052
-1.62E-01,-0.056
-1.62E-01,-0.044
-1.61E-01,-0.032
-1.61E-01,-0.036
-1.61E-01,-0.032
-1.61E-01,-0.028
-1.61E-01,-0.028
-1.60E-01,-0.032
-1.60E-01,0
-1.60E-01,-0.004
-1.60E-01,0
-1.60E-01,0.008
-1.59E-01,0.02
-1.59E-01,0.008
-1.59E-01,0.016
-1.59E-01,0.016
-1.59E-01,0.008
-1.58E-01,0.008
-1.58E-01,0.028
-1.58E-01,-0.004
-1.58E-01,0.004
-1.58E-01,0.012
-1.57E-01,-0.004
-1.57E-01,-0.016
-1.57E-01,-0.016
-1.57E-01,-0.012
-1.57E-01,-0.016
-1.56E-01,0
-1.56E-01,0.008
-1.56E-01,-0.008
-1.56E-01,0.004
-1.56E-01,-0.004
-1.55E-01,-0.008
-1.55E-01,0.004
-1.55E-01,0.016
-1.55E-01,0.004
-1.55E-01,0.012
-1.54E-01,-0.004
-1.54E-01,-0.012
-1.54E-01,-0.02
-1.54E-01,-0.016
-1.54E-01,-0.02
-1.53E-01,-0.032
-1.53E-01,-0.028
-1.53E-01,-0.036
-1.53E-01,-0.044
-1.53E-01,-0.04
-1.52E-01,-0.044
-1.52E-01,-0.036
-1.52E-01,-0.02
-1.52E-01,-0.036
-1.52E-01,-0.056
-1.51E-01,-0.048
-1.51E-01,-0.028
-1.51E-01,-0.02
-1.51E-01,-0.028
-1.51E-01,-0.032
-1.50E-01,-0.028
-1.50E-01,-0.024
-1.50E-01,-0.044
-1.50E-01,-0.044
-1.50E-01,-0.036
-1.49E-01,-0.036
-1.49E-01,-0.032
-1.49E-01,-0.036
-1.49E-01,-0.032
-1.49E-01,-0.048
-1.48E-01,-0.048
-1.48E-01,-0.052
-1.48E-01,-0.044
-1.48E-01,-0.036
-1.48E-01,-0.02
-1.47E-01,-0.016
-1.47E-01,-0.012
-1.47E-01,0.016
-1.47E-01,0.008
-1.47E-01,0.028
-1.46E-01,0.028
-1.46E-01,0.008
-1.46E-01,0.016
-1.46E-01,0.004
-1.46E-01,-0.004
-1.45E-01,-0.012
-1.45E-01,-0.008
-1.45E-01,-0.02
-1.45E-01,-0.008
-1.45E-01,-0.016
-1.44E-01,-0.032
-1.44E-01,-0.044
-1.44E-01,-0.044
-1.44E-01,-0.032
-1.44E-01,-0.048
-1.43E-01,-0.044
-1.43E-01,-0.04
-1.43E-01,-0.056
-1.43E-01,-0.044
-1.43E-01,-0.048
-1.42E-01,-0.076
-1.42E-01,-0.072
-1.42E-01,-0.084
-1.42E-01,-0.096
-1.42E-01,-0.1
-1.41E-01,-0.096
-1.41E-01,-0.088
-1.41E-01,-0.1
-1.41E-01,-0.096
-1.41E-01,-0.096
-1.40E-01,-0.092
-1.40E-01,-0.068
-1.40E-01,-0.056
-1.40E-01,-0.056
-1.40E-01,-0.032
-1.39E-01,-0.024
-1.39E-01,-0.004
-1.39E-01,0.004
-1.39E-01,0.024
-1.39E-01,0.016
-1.38E-01,0.036
-1.38E-01,0.052
-1.38E-01,0.044
-1.38E-01,0.06
-1.38E-01,0.072
-1.37E-01,0.06
-1.37E-01,0.064
-1.37E-01,0.044
-1.37E-01,0.044
-1.37E-01,0.06
-1.36E-01,0.056
-1.36E-01,0.04
-1.36E-01,0.04
-1.36E-01,0.056
-1.36E-01,0.048
-1.35E-01,0.048
-1.35E-01,0.036
-1.35E-01,0.012
-1.35E-01,0.032
-1.35E-01,-0.004
-1.34E-01,-0.012
-1.34E-01,-0.024
-1.34E-01,-0.032
-1.34E-01,-0.036
-1.34E-01,-0.056
-1.33E-01,-0.068
-1.33E-01,-0.064
-1.33E-01,-0.068
-1.33E-01,-0.076
-1.33E-01,-0.076
-1.32E-01,-0.1
-1.32E-01,-0.084
-1.32E-01,-0.104
-1.32E-01,-0.108
-1.32E-01,-0.12
-1.31E-01,-0.112
-1.31E-01,-0.108
-1.31E-01,-0.108
-1.31E-01,-0.108
-1.31E-01,-0.096
-1.30E-01,-0.088
-1.30E-01,-0.072
-1.30E-01,-0.08
-1.30E-01,-0.06
-1.30E-01,-0.056
-1.29E-01,-0.028
-1.29E-01,-0.016
-1.29E-01,0.012
-1.29E-01,0.024
-1.29E-01,0.052
-1.28E-01,0.068
-1.28E-01,0.076
-1.28E-01,0.08
-1.28E-01,0.108
-1.28E-01,0.108
-1.27E-01,0.112
-1.27E-01,0.116
-1.27E-01,0.12
-1.27E-01,0.124
-1.27E-01,0.136
-1.26E-01,0.136
-1.26E-01,0.124
-1.26E-01,0.14
-1.26E-01,0.14
-1.26E-01,0.144
-1.25E-01,0.14
-1.25E-01,0.12
-1.25E-01,0.112
-1.25E-01,0.128
-1.25E-01,0.124
-1.24E-01,0.092
-1.24E-01,0.092
-1.24E-01,0.096
-1.24E-01,0.092
-1.24E-01,0.104
-1.23E-01,0.108
-1.23E-01,0.104
-1.23E-01,0.112
-1.23E-01,0.104
-1.23E-01,0.088
-1.22E-01,0.08
-1.22E-01,0.092
-1.22E-01,0.076
-1.22E-01,0.088
-1.22E-01,0.092
-1.21E-01,0.088
-1.21E-01,0.088
-1.21E-01,0.112
-1.21E-01,0.092
-1.21E-01,0.096
-1.20E-01,0.096
-1.20E-01,0.092
-1.20E-01,0.096
-1.20E-01,0.084
-1.20E-01,0.08
-1.19E-01,0.06
-1.19E-01,0.056
-1.19E-01,0.036
-1.19E-01,0.016
-1.19E-01,0.008
-1.18E-01,-0.008
-1.18E-01,-0.04
-1.18E-01,-0.072
-1.18E-01,-0.088
-1.18E-01,-0.092
-1.17E-01,-0.108
-1.17E-01,-0.12
-1.17E-01,-0.136
-1.17E-01,-0.156
-1.17E-01,-0.148
-1.16E-01,-0.172
-1.16E-01,-0.168
-1.16E-01,-0.16
-1.16E-01,-0.16
-1.16E-01,-0.152
-1.15E-01,-0.156
-1.15E-01,-0.172
-1.15E-01,-0.14
-1.15E-01,-0.136
-1.15E-01,-0.148
-1.14E-01,-0.128
-1.14E-01,-0.116
-1.14E-01,-0.112
-1.14E-01,-0.112
-1.14E-01,-0.12
-1.13E-01,-0.116
-1.13E-01,-0.116
-1.13E-01,-0.092
-1.13E-01,-0.092
-1.13E-01,-0.064
-1.12E-01,-0.04
-1.12E-01,-0.032
-1.12E-01,-0.012
-1.12E-01,0.024
-1.12E-01,0.032
-1.11E-01,0.064
-1.11E-01,0.096
-1.11E-01,0.112
-1.11E-01,0.132
-1.11E-01,0.144
-1.10E-01,0.16
-1.10E-01,0.164
-1.10E-01,0.16
-1.10E-01,0.192
-1.10E-01,0.184
-1.09E-01,0.176
-1.09E-01,0.208
-1.09E-01,0.18
-1.09E-01,0.172
-1.09E-01,0.168
-1.08E-01,0.168
-1.08E-01,0.168
-1.08E-01,0.172
-1.08E-01,0.148
-1.08E-01,0.164
-1.07E-01,0.164
-1.07E-01,0.148
-1.07E-01,0.128
-1.07E-01,0.148
-1.07E-01,0.132
-1.06E-01,0.108
-1.06E-01,0.104
-1.06E-01,0.072
-1.06E-01,0.076
-1.06E-01,0.06
-1.05E-01,0.06
-1.05E-01,0.04
-1.05E-01,0.044
-1.05E-01,0.048
-1.05E-01,0.052
-1.04E-01,0.048
-1.04E-01,0.056
-1.04E-01,0.024
-1.04E-01,0.032
-1.04E-01,0.028
-1.03E-01,0.008
-1.03E-01,0.012
-1.03E-01,0
-1.03E-01,-0.036
-1.03E-01,-0.036
-1.02E-01,-0.04
-1.02E-01,-0.048
-1.02E-01,-0.048
-1.02E-01,-0.04
-1.02E-01,-0.06
-1.01E-01,-0.044
-1.01E-01,-0.056
-1.01E-01,-0.052
-1.01E-01,-0.044
-1.01E-01,-0.04
-1.00E-01,-0.06
-1.00E-01,-0.056
-1.00E-01,-0.064
-9.98E-02,-0.068
-9.96E-02,-0.056
-9.94E-02,-0.06
-9.92E-02,-0.076
-9.90E-02,-0.064
-9.88E-02,-0.076
-9.86E-02,-0.072
-9.84E-02,-0.096
-9.82E-02,-0.1
-9.80E-02,-0.108
-9.78E-02,-0.096
-9.76E-02,-0.08
-9.74E-02,-0.1
-9.72E-02,-0.1
-9.70E-02,-0.076
-9.68E-02,-0.076
-9.66E-02,-0.076
-9.64E-02,-0.076
-9.62E-02,-0.08
-9.60E-02,-0.072
-9.58E-02,-0.052
-9.56E-02,-0.06
-9.54E-02,-0.056
-9.52E-02,-0.032
-9.50E-02,-0.04
-9.48E-02,-0.012
-9.46E-02,-0.008
-9.44E-02,0.028
-9.42E-02,0.048
-9.40E-02,0.072
-9.38E-02,0.088
-9.36E-02,0.104
-9.34E-02,0.112
-9.32E-02,0.144
-9.30E-02,0.144
-9.28E-02,0.152
-9.26E-02,0.168
-9.24E-02,0.184
-9.22E-02,0.172
-9.20E-02,0.2
-9.18E-02,0.2
-9.16E-02,0.184
-9.14E-02,0.18
-9.12E-02,0.18
-9.10E-02,0.172
-9.08E-02,0.172
-9.06E-02,0.176
-9.04E-02,0.172
-9.02E-02,0.176
-9.00E-02,0.172
-8.98E-02,0.164
-8.96E-02,0.144
-8.94E-02,0.136
-8.92E-02,0.148
-8.90E-02,0.112
-8.88E-02,0.116
-8.86E-02,0.108
-8.84E-02,0.084
-8.82E-02,0.088
-8.80E-02,0.072
-8.78E-02,0.06
-8.76E-02,0.064
-8.74E-02,0.044
-8.72E-02,0.036
-8.70E-02,0.048
-8.68E-02,0.056
-8.66E-02,0.032
-8.64E-02,0.048
-8.62E-02,0.032
-8.60E-02,0.052
-8.58E-02,0.052
-8.56E-02,0.056
-8.54E-02,0.048
-8.52E-02,0.064
-8.50E-02,0.052
-8.48E-02,0.052
-8.46E-02,0.036
-8.44E-02,0.028
-8.42E-02,0.024
-8.40E-02,0.016
-8.38E-02,0.016
-8.36E-02,0.016
-8.34E-02,-0.008
-8.32E-02,-0.012
-8.30E-02,-0.028
-8.28E-02,-0.044
-8.26E-02,-0.076
-8.24E-02,-0.092
-8.22E-02,-0.08
-8.20E-02,-0.068
-8.18E-02,-0.092
-8.16E-02,-0.096
-8.14E-02,-0.08
-8.12E-02,-0.072
-8.10E-02,-0.092
-8.08E-02,-0.076
-8.06E-02,-0.104
-8.04E-02,-0.088
-8.02E-02,-0.088
-8.00E-02,-0.1
-7.98E-02,-0.116
-7.96E-02,-0.116
-7.94E-02,-0.128
-7.92E-02,-0.136
-7.90E-02,-0.136
-7.88E-02,-0.108
-7.86E-02,-0.124
-7.84E-02,-0.108
-7.82E-02,-0.1
-7.80E-02,-0.088
-7.78E-02,-0.056
-7.76E-02,-0.032
-7.74E-02,-0.024
-7.72E-02,0
-7.70E-02,0.008
-7.68E-02,0.032
-7.66E-02,0.044
-7.64E-02,0.052
-7.62E-02,0.052
-7.60E-02,0.06
-7.58E-02,0.072
-7.56E-02,0.072
-7.54E-02,0.076
-7.52E-02,0.072
-7.50E-02,0.072
-7.48E-02,0.068
-7.46E-02,0.072
-7.44E-02,0.064
-7.42E-02,0.048
-7.40E-02,0.044
-7.38E-02,0.04
-7.36E-02,0.028
-7.34E-02,0.016
-7.32E-02,0.016
-7.30E-02,-0.012
-7.28E-02,-0.008
-7.26E-02,-0.016
-7.24E-02,-0.056
-7.22E-02,-0.044
-7.20E-02,-0.036
-7.18E-02,-0.032
-7.16E-02,-0.032
-7.14E-02,-0.032
-7.12E-02,-0.044
-7.10E-02,-0.048
-7.08E-02,-0.036
-7.06E-02,-0.032
-7.04E-02,-0.024
-7.02E-02,-0.02
-7.00E-02,-0.024
-6.98E-02,-0.012
-6.96E-02,-0.016
-6.94E-02,-0.004
-6.92E-02,0.008
-6.90E-02,0.008
-6.88E-02,0.024
-6.86E-02,0.02
-6.84E-02,0.02
-6.82E-02,0.012
-6.80E-02,-0.008
-6.78E-02,0
-6.76E-02,-0.028
-6.74E-02,-0.048
-6.72E-02,-0.048
-6.70E-02,-0.04
-6.68E-02,-0.068
-6.66E-02,-0.064
-6.64E-02,-0.072
-6.62E-02,-0.084
-6.60E-02,-0.06
-6.58E-02,-0.064
-6.56E-02,-0.056
-6.54E-02,-0.064
-6.52E-02,-0.06
-6.50E-02,-0.076
-6.48E-02,-0.084
-6.46E-02,-0.092
-6.44E-02,-0.112
-6.42E-02,-0.092
-6.40E-02,-0.104
-6.38E-02,-0.112
-6.36E-02,-0.112
-6.34E-02,-0.132
-6.32E-02,-0.112
-6.30E-02,-0.116
-6.28E-02,-0.1
-6.26E-02,-0.108
-6.24E-02,-0.088
-6.22E-02,-0.076
-6.20E-02,-0.076
-6.18E-02,-0.076
-6.16E-02,-0.068
-6.14E-02,-0.052
-6.12E-02,-0.04
-6.10E-02,-0.004
-6.08E-02,-0.004
-6.06E-02,0.02
-6.04E-02,0.028
-6.02E-02,0.048
-6.00E-02,0.064
-5.98E-02,0.088
-5.96E-02,0.096
-5.94E-02,0.096
-5.92E-02,0.116
-5.90E-02,0.12
-5.88E-02,0.108
-5.86E-02,0.136
-5.84E-02,0.112
-5.82E-02,0.112
-5.80E-02,0.104
-5.78E-02,0.108
-5.76E-02,0.088
-5.74E-02,0.096
-5.72E-02,0.068
-5.70E-02,0.048
-5.68E-02,0.06
-5.66E-02,0.056
-5.64E-02,0.06
-5.62E-02,0.064
-5.60E-02,0.036
-5.58E-02,0.056
-5.56E-02,0.04
-5.54E-02,0.028
-5.52E-02,0.024
-5.50E-02,0.02
-5.48E-02,0.028
-5.46E-02,0.02
-5.44E-02,0.004
-5.42E-02,0.008
-5.40E-02,0.012
-5.38E-02,-0.004
-5.36E-02,-0.012
-5.34E-02,-0.012
-5.32E-02,-0.044
-5.30E-02,-0.04
-5.28E-02,-0.068
-5.26E-02,-0.088
-5.24E-02,-0.08
-5.22E-02,-0.08
-5.20E-02,-0.104
-5.18E-02,-0.092
-5.16E-02,-0.1
-5.14E-02,-0.096
-5.12E-02,-0.088
-5.10E-02,-0.088
-5.08E-02,-0.104
-5.06E-02,-0.088
-5.04E-02,-0.08
-5.02E-02,-0.088
-5.00E-02,-0.084
-4.98E-02,-0.076
-4.96E-02,-0.088
-4.94E-02,-0.076
-4.92E-02,-0.064
-4.90E-02,-0.068
-4.88E-02,-0.04
-4.86E-02,-0.04
-4.84E-02,-0.028
-4.82E-02,-0.044
-4.80E-02,-0.04
-4.78E-02,-0.048
-4.76E-02,-0.028
-4.74E-02,-0.032
-4.72E-02,-0.028
-4.70E-02,-0.036
-4.68E-02,-0.032
-4.66E-02,-0.028
-4.64E-02,-0.024
-4.62E-02,-0.004
-4.60E-02,-0.004
-4.58E-02,0.024
-4.56E-02,0.012
-4.54E-02,0.02
-4.52E-02,0.036
-4.50E-02,0.028
-4.48E-02,0.024
-4.46E-02,0.016
-4.44E-02,0.024
-4.42E-02,0.032
-4.40E-02,0.004
-4.38E-02,-0.012
-4.36E-02,0
-4.34E-02,-0.02
-4.32E-02,0
-4.30E-02,0.004
-4.28E-02,0
-4.26E-02,-0.004
-4.24E-02,0
-4.22E-02,-0.012
-4.20E-02,-0.008
-4.18E-02,-0.02
-4.16E-02,-0.02
-4.14E-02,-0.032
-4.12E-02,-0.04
-4.10E-02,-0.048
-4.08E-02,-0.036
-4.06E-02,-0.044
-4.04E-02,-0.04
-4.02E-02,-0.028
-4.00E-02,-0.02
-3.98E-02,0
-3.96E-02,0
-3.94E-02,0.024
-3.92E-02,0.052
-3.90E-02,0.036
-3.88E-02,0.044
-3.86E-02,0.048
-3.84E-02,0.032
-3.82E-02,0.028
-3.80E-02,0.032
-3.78E-02,0.016
-3.76E-02,0.008
-3.74E-02,0.008
-3.72E-02,-0.004
-3.70E-02,-0.016
-3.68E-02,-0.012
-3.66E-02,-0.004
-3.64E-02,0
-3.62E-02,-0.008
-3.60E-02,0.012
-3.58E-02,0.012
-3.56E-02,0
-3.54E-02,-0.012
-3.52E-02,0.004
-3.50E-02,0.004
-3.48E-02,0
-3.46E-02,-0.016
-3.44E-02,-0.004
-3.42E-02,-0.016
-3.40E-02,-0.036
-3.38E-02,-0.052
-3.36E-02,-0.048
-3.34E-02,-0.068
-3.32E-02,-0.064
-3.30E-02,-0.064
-3.28E-02,-0.076
-3.26E-02,-0.068
-3.24E-02,-0.068
-3.22E-02,-0.064
-3.20E-02,-0.06
-3.18E-02,-0.032
-3.16E-02,-0.036
-3.14E-02,-0.024
-3.12E-02,0
-3.10E-02,-0.008
-3.08E-02,0.004
-3.06E-02,0.004
-3.04E-02,0.016
-3.02E-02,0.008
-3.00E-02,0.028
-2.98E-02,0.016
-2.96E-02,0.028
-2.94E-02,0.02
-2.92E-02,0.02
-2.90E-02,0.016
-2.88E-02,0.044
-2.86E-02,0.052
-2.84E-02,0.056
-2.82E-02,0.044
-2.80E-02,0.044
-2.78E-02,0.052
-2.76E-02,0.072
-2.74E-02,0.048
-2.72E-02,0.06
-2.70E-02,0.076
-2.68E-02,0.076
-2.66E-02,0.072
-2.64E-02,0.072
-2.62E-02,0.076
-2.60E-02,0.072
-2.58E-02,0.076
-2.56E-02,0.08
-2.54E-02,0.076
-2.52E-02,0.072
-2.50E-02,0.072
-2.48E-02,0.06
-2.46E-02,0.064
-2.44E-02,0.068
-2.42E-02,0.064
-2.40E-02,0.08
-2.38E-02,0.08
-2.36E-02,0.084
-2.34E-02,0.088
-2.32E-02,0.1
-2.30E-02,0.096
-2.28E-02,0.096
-2.26E-02,0.068
-2.24E-02,0.064
-2.22E-02,0.048
-2.20E-02,0.048
-2.18E-02,0.032
-2.16E-02,0.024
-2.14E-02,0.032
-2.12E-02,0.048
-2.10E-02,0.04
-2.08E-02,0.028
-2.06E-02,0.04
-2.04E-02,0.036
-2.02E-02,0.024
-2.00E-02,0.016
-1.98E-02,-0.004
-1.96E-02,0
-1.94E-02,-0.028
-1.92E-02,-0.072
-1.90E-02,-0.072
-1.88E-02,-0.108
-1.86E-02,-0.124
-1.84E-02,-0.16
-1.82E-02,-0.172
-1.80E-02,-0.188
-1.78E-02,-0.192
-1.76E-02,-0.2
-1.74E-02,-0.2
-1.72E-02,-0.212
-1.70E-02,-0.192
-1.68E-02,-0.22
-1.66E-02,-0.208
-1.64E-02,-0.208
-1.62E-02,-0.212
-1.60E-02,-0.216
-1.58E-02,-0.228
-1.56E-02,-0.232
-1.54E-02,-0.24
-1.52E-02,-0.236
-1.50E-02,-0.232
-1.48E-02,-0.236
-1.46E-02,-0.208
-1.44E-02,-0.216
-1.42E-02,-0.208
-1.40E-02,-0.184
-1.38E-02,-0.168
-1.36E-02,-0.172
-1.34E-02,-0.156
-1.32E-02,-0.144
-1.30E-02,-0.128
-1.28E-02,-0.112
-1.26E-02,-0.104
-1.24E-02,-0.096
-1.22E-02,-0.072
-1.20E-02,-0.06
-1.18E-02,-0.044
-1.16E-02,-0.04
-1.14E-02,-0.012
-1.12E-02,-0.008
-1.10E-02,0.008
-1.08E-02,0.016
-1.06E-02,0.028
-1.04E-02,0.036
-1.02E-02,0.052
-1.00E-02,0.044
-9.80E-03,0.036
-9.60E-03,0.076
-9.40E-03,0.072
-9.20E-03,0.064
-9.00E-03,0.072
-8.80E-03,0.064
-8.60E-03,0.052
-8.40E-03,0.052
-8.20E-03,0.044
-8.00E-03,0.024
-7.80E-03,0.04
-7.60E-03,0.044
-7.40E-03,0.048
-7.20E-03,0.032
-7.00E-03,0.028
-6.80E-03,0.032
-6.60E-03,0.044
-6.40E-03,0.04
-6.20E-03,0.032
-6.00E-03,0.024
-5.80E-03,0.056
-5.60E-03,0.044
-5.40E-03,0.044
-5.20E-03,0.04
-5.00E-03,0.028
-4.80E-03,0.032
-4.60E-03,0.044
-4.40E-03,0.024
-4.20E-03,0.028
-4.00E-03,0.032
-3.80E-03,0.028
-3.60E-03,0.008
-3.40E-03,0.008
-3.20E-03,0.008
-3.00E-03,0.012
-2.80E-03,0.008
-2.60E-03,0.004
-2.40E-03,-0.016
-2.20E-03,-0.004
-2.00E-03,-0.028
-1.80E-03,-0.032
-1.60E-03,-0.036
-1.40E-03,-0.04
-1.20E-03,-0.056
-1.00E-03,-0.06
-8.00E-04,-0.064
-6.00E-04,-0.072
-4.00E-04,-0.076
-2.00E-04,-0.1
0.00E+00,-0.12
2.00E-04,-0.1
4.00E-04,-0.112
6.00E-04,-0.108
8.00E-04,-0.116
1.00E-03,-0.1
1.20E-03,-0.108
1.40E-03,-0.088
1.60E-03,-0.084
1.80E-03,-0.08
2.00E-03,-0.052
2.20E-03,-0.044
2.40E-03,-0.036
2.60E-03,0.004
2.80E-03,0.012
3.00E-03,0.024
3.20E-03,0.048
3.40E-03,0.028
3.60E-03,0.056
3.80E-03,0.044
4.00E-03,0.072
4.20E-03,0.076
4.40E-03,0.06
4.60E-03,0.06
4.80E-03,0.08
5.00E-03,0.072
5.20E-03,0.064
5.40E-03,0.064
5.60E-03,0.068
5.80E-03,0.084
6.00E-03,0.084
6.20E-03,0.08
6.40E-03,0.08
6.60E-03,0.08
6.80E-03,0.084
7.00E-03,0.076
7.20E-03,0.08
7.40E-03,0.08
7.60E-03,0.104
7.80E-03,0.088
8.00E-03,0.112
8.20E-03,0.1
8.40E-03,0.108
8.60E-03,0.104
8.80E-03,0.104
9.00E-03,0.096
9.20E-03,0.112
9.40E-03,0.1
9.60E-03,0.112
9.80E-03,0.096
1.00E-02,0.088
1.02E-02,0.072
1.04E-02,0.072
1.06E-02,0.06
1.08E-02,0.068
1.10E-02,0.072
1.12E-02,0.044
1.14E-02,0.032
1.16E-02,0.048
1.18E-02,0
1.20E-02,-0.016
1.22E-02,-0.028
1.24E-02,-0.044
1.26E-02,-0.06
1.28E-02,-0.064
1.30E-02,-0.096
1.32E-02,-0.084
1.34E-02,-0.068
1.36E-02,-0.088
1.38E-02,-0.076
1.40E-02,-0.076
1.42E-02,-0.08
1.44E-02,-0.076
1.46E-02,-0.076
1.48E-02,-0.068
1.50E-02,-0.072
1.52E-02,-0.072
1.54E-02,-0.08
1.56E-02,-0.076
1.58E-02,-0.068
1.60E-02,-0.056
1.62E-02,-0.06
1.64E-02,-0.08
1.66E-02,-0.056
1.68E-02,-0.048
1.70E-02,-0.052
1.72E-02,-0.052
1.74E-02,-0.076
1.76E-02,-0.08
1.78E-02,-0.084
1.80E-02,-0.108
1.82E-02,-0.1
1.84E-02,-0.092
1.86E-02,-0.124
1.88E-02,-0.112
1.90E-02,-0.128
1.92E-02,-0.12
1.94E-02,-0.108
1.96E-02,-0.104
1.98E-02,-0.092
2.00E-02,-0.08
2.02E-02,-0.048
2.04E-02,-0.04
2.06E-02,-0.024
2.08E-02,-0.008
2.10E-02,-0.016
2.12E-02,0.004
2.14E-02,0.032
2.16E-02,0.04
2.18E-02,0.048
2.20E-02,0.064
2.22E-02,0.072
2.24E-02,0.092
2.26E-02,0.092
2.28E-02,0.096
2.30E-02,0.104
2.32E-02,0.116
2.34E-02,0.112
2.36E-02,0.112
2.38E-02,0.108
2.40E-02,0.112
2.42E-02,0.104
2.44E-02,0.092
2.46E-02,0.1
2.48E-02,0.08
2.50E-02,0.084
2.52E-02,0.096
2.54E-02,0.08
2.56E-02,0.084
2.58E-02,0.08
2.60E-02,0.072
2.62E-02,0.076
2.64E-02,0.08
2.66E-02,0.08
2.68E-02,0.072
2.70E-02,0.072
2.72E-02,0.088
2.74E-02,0.068
2.76E-02,0.064
2.78E-02,0.064
2.80E-02,0.064
2.82E-02,0.092
2.84E-02,0.06
2.86E-02,0.056
2.88E-02,0.056
2.90E-02,0.064
2.92E-02,0.04
2.94E-02,0.052
2.96E-02,0.048
2.98E-02,0.04
3.00E-02,0.02
3.02E-02,0.012
3.04E-02,0
3.06E-02,0
3.08E-02,-0.02
3.10E-02,-0.032
3.12E-02,-0.02
3.14E-02,-0.016
3.16E-02,-0.032
3.18E-02,-0.04
3.20E-02,-0.032
3.22E-02,-0.044
3.24E-02,-0.044
3.26E-02,-0.056
3.28E-02,-0.072
3.30E-02,-0.048
3.32E-02,-0.056
3.34E-02,-0.076
3.36E-02,-0.076
3.38E-02,-0.06
3.40E-02,-0.06
3.42E-02,-0.064
3.44E-02,-0.056
3.46E-02,-0.076
3.48E-02,-0.06
3.50E-02,-0.044
3.52E-02,-0.072
3.54E-02,-0.06
3.56E-02,-0.072
3.58E-02,-0.076
3.60E-02,-0.056
3.62E-02,-0.048
3.64E-02,-0.048
3.66E-02,-0.028
3.68E-02,-0.028
3.70E-02,-0.008
3.72E-02,-0.012
3.74E-02,0
3.76E-02,-0.012
3.78E-02,0
3.80E-02,-0.004
3.82E-02,0.012
3.84E-02,0.012
3.86E-02,0.02
3.88E-02,0.052
3.90E-02,0.036
3.92E-02,0.024
3.94E-02,0.052
3.96E-02,0.052
3.98E-02,0.056
4.00E-02,0.064
4.02E-02,0.064
4.04E-02,0.084
4.06E-02,0.076
4.08E-02,0.096
4.10E-02,0.088
4.12E-02,0.104
4.14E-02,0.116
4.16E-02,0.124
4.18E-02,0.124
4.20E-02,0.132
4.22E-02,0.144
4.24E-02,0.132
4.26E-02,0.14
4.28E-02,0.136
4.30E-02,0.128
4.32E-02,0.128
4.34E-02,0.132
4.36E-02,0.12
4.38E-02,0.132
4.40E-02,0.12
4.42E-02,0.108
4.44E-02,0.12
4.46E-02,0.112
4.48E-02,0.096
4.50E-02,0.108
4.52E-02,0.092
4.54E-02,0.096
4.56E-02,0.096
4.58E-02,0.088
4.60E-02,0.064
4.62E-02,0.076
4.64E-02,0.064
4.66E-02,0.044
4.68E-02,0.04
4.70E-02,0.02
4.72E-02,-0.004
4.74E-02,-0.02
4.76E-02,-0.024
4.78E-02,-0.044
4.80E-02,-0.052
4.82E-02,-0.06
4.84E-02,-0.056
4.86E-02,-0.048
4.88E-02,-0.052
4.90E-02,-0.068
4.92E-02,-0.052
4.94E-02,-0.052
4.96E-02,-0.032
4.98E-02,-0.048
5.00E-02,-0.048
5.02E-02,-0.056
5.04E-02,-0.048
5.06E-02,-0.044
5.08E-02,-0.064
5.10E-02,-0.064
5.12E-02,-0.076
5.14E-02,-0.068
5.16E-02,-0.084
5.18E-02,-0.092
5.20E-02,-0.104
5.22E-02,-0.1
5.24E-02,-0.108
5.26E-02,-0.128
5.28E-02,-0.136
5.30E-02,-0.12
5.32E-02,-0.12
5.34E-02,-0.132
5.36E-02,-0.112
5.38E-02,-0.1
5.40E-02,-0.096
5.42E-02,-0.064
5.44E-02,-0.052
5.46E-02,-0.04
5.48E-02,-0.008
5.50E-02,0.008
5.52E-02,-0.004
5.54E-02,0.008
5.56E-02,-0.008
5.58E-02,-0.004
5.60E-02,0.012
5.62E-02,-0.012
5.64E-02,-0.008
5.66E-02,0
5.68E-02,0.016
5.70E-02,0.032
5.72E-02,0.024
5.74E-02,0.036
5.76E-02,0.052
5.78E-02,0.068
5.80E-02,0.088
5.82E-02,0.096
5.84E-02,0.096
5.86E-02,0.112
5.88E-02,0.108
5.90E-02,0.112
5.92E-02,0.12
5.94E-02,0.128
5.96E-02,0.136
5.98E-02,0.144
6.00E-02,0.152
6.02E-02,0.148
6.04E-02,0.148
6.06E-02,0.152
6.08E-02,0.144
6.10E-02,0.152
6.12E-02,0.156
6.14E-02,0.148
6.16E-02,0.172
6.18E-02,0.176
6.20E-02,0.172
6.22E-02,0.172
6.24E-02,0.176
6.26E-02,0.172
6.28E-02,0.164
6.30E-02,0.16
6.32E-02,0.128
6.34E-02,0.112
6.36E-02,0.096
6.38E-02,0.064
6.40E-02,0.044
6.42E-02,0.044
6.44E-02,0.012
6.46E-02,0.004
6.48E-02,0
6.50E-02,-0.016
6.52E-02,-0.016
6.54E-02,-0.016
6.56E-02,-0.008
6.58E-02,-0.008
6.60E-02,0.004
6.62E-02,-0.02
6.64E-02,-0.04
6.66E-02,-0.024
6.68E-02,-0.012
6.70E-02,-0.024
6.72E-02,-0.016
6.74E-02,-0.016
6.76E-02,-0.004
6.78E-02,0.008
6.80E-02,0
6.82E-02,-0.004
6.84E-02,0.012
6.86E-02,0.032
6.88E-02,0.028
6.90E-02,0.032
6.92E-02,0.036
6.94E-02,0.036
6.96E-02,0.024
6.98E-02,0.036
7.00E-02,0.016
7.02E-02,0.024
7.04E-02,0.004
7.06E-02,0
7.08E-02,-0.016
7.10E-02,-0.02
7.12E-02,-0.036
7.14E-02,-0.004
7.16E-02,-0.012
7.18E-02,-0.012
7.20E-02,-0.02
7.22E-02,0.008
7.24E-02,-0.004
7.26E-02,0.016
7.28E-02,0.008
7.30E-02,-0.004
7.32E-02,0.012
7.34E-02,0.012
7.36E-02,0.008
7.38E-02,0.02
7.40E-02,0.028
7.42E-02,0.04
7.44E-02,0.028
7.46E-02,0.052
7.48E-02,0.044
7.50E-02,0.032
7.52E-02,0.04
7.54E-02,0
7.56E-02,0
7.58E-02,-0.008
7.60E-02,-0.004
7.62E-02,0.004
7.64E-02,-0.004
7.66E-02,0.008
7.68E-02,0.016
7.70E-02,0.012
7.72E-02,0.024
7.74E-02,0.044
7.76E-02,0.04
7.78E-02,0.032
7.80E-02,0.028
7.82E-02,0.02
7.84E-02,0.008
7.86E-02,0.012
7.88E-02,0.012
7.90E-02,0.008
7.92E-02,0.004
7.94E-02,-0.008
7.96E-02,0
7.98E-02,-0.012
8.00E-02,-0.02
8.02E-02,-0.024
8.04E-02,-0.028
8.06E-02,-0.028
8.08E-02,-0.056
8.10E-02,-0.056
8.12E-02,-0.064
8.14E-02,-0.06
8.16E-02,-0.068
8.18E-02,-0.088
8.20E-02,-0.08
8.22E-02,-0.1
8.24E-02,-0.12
8.26E-02,-0.136
8.28E-02,-0.164
8.30E-02,-0.18
8.32E-02,-0.196
8.34E-02,-0.196
8.36E-02,-0.236
8.38E-02,-0.224
8.40E-02,-0.22
8.42E-02,-0.22
8.44E-02,-0.208
8.46E-02,-0.196
8.48E-02,-0.184
8.50E-02,-0.144
8.52E-02,-0.136
8.54E-02,-0.108
8.56E-02,-0.08
8.58E-02,-0.04
8.60E-02,-0.02
8.62E-02,-0.012
8.64E-02,0.008
8.66E-02,0.036
8.68E-02,0.032
8.70E-02,0.044
8.72E-02,0.064
8.74E-02,0.084
8.76E-02,0.104
8.78E-02,0.116
8.80E-02,0.12
8.82E-02,0.132
8.84E-02,0.136
8.86E-02,0.12
8.88E-02,0.14
8.90E-02,0.132
8.92E-02,0.112
8.94E-02,0.124
8.96E-02,0.112
8.98E-02,0.092
9.00E-02,0.096
9.02E-02,0.088
9.04E-02,0.08
9.06E-02,0.096
9.08E-02,0.096
9.10E-02,0.088
9.12E-02,0.08
9.14E-02,0.08
9.16E-02,0.076
9.18E-02,0.068
9.20E-02,0.052
9.22E-02,0.06
9.24E-02,0.052
9.26E-02,0.056
9.28E-02,0.064
9.30E-02,0.064
9.32E-02,0.068
9.34E-02,0.072
9.36E-02,0.068
9.38E-02,0.072
9.40E-02,0.104
9.42E-02,0.096
9.44E-02,0.104
9.46E-02,0.116
9.48E-02,0.108
9.50E-02,0.12
9.52E-02,0.124
9.54E-02,0.104
9.56E-02,0.124
9.58E-02,0.116
9.60E-02,0.104
9.62E-02,0.1
9.64E-02,0.092
9.66E-02,0.068
9.68E-02,0.076
9.70E-02,0.072
9.72E-02,0.068
9.74E-02,0.056
9.76E-02,0.052
9.78E-02,0.044
9.80E-02,0.036
9.82E-02,0.028
9.84E-02,0.016
9.86E-02,0.012
9.88E-02,0.012
9.90E-02,0
9.92E-02,-0.02
9.94E-02,-0.044
9.96E-02,-0.044
9.98E-02,-0.048
1.00E-01,-0.064
1.00E-01,-0.052
1.00E-01,-0.064
1.01E-01,-0.032
1.01E-01,-0.032
1.01E-01,-0.036
1.01E-01,-0.04
1.01E-01,-0.016
1.02E-01,-0.024
1.02E-01,-0.02
1.02E-01,-0.012
1.02E-01,-0.008
1.02E-01,0
1.03E-01,0
1.03E-01,0.012
1.03E-01,0.012
1.03E-01,0.032
1.03E-01,0.024
1.04E-01,0.036
1.04E-01,0.068
1.04E-01,0.052
1.04E-01,0.068
1.04E-01,0.08
1.05E-01,0.06
1.05E-01,0.068
1.05E-01,0.076
1.05E-01,0.064
1.05E-01,0.076
1.06E-01,0.08
1.06E-01,0.076
1.06E-01,0.092
1.06E-01,0.096
1.06E-01,0.092
1.07E-01,0.092
1.07E-01,0.108
1.07E-01,0.12
1.07E-01,0.112
1.07E-01,0.112
1.08E-01,0.144
1.08E-01,0.132
1.08E-01,0.148
1.08E-01,0.14
1.08E-01,0.132
1.09E-01,0.156
1.09E-01,0.14
1.09E-01,0.136
1.09E-01,0.124
1.09E-01,0.128
1.10E-01,0.128
1.10E-01,0.112
1.10E-01,0.108
1.10E-01,0.088
1.10E-01,0.092
1.11E-01,0.076
1.11E-01,0.06
1.11E-01,0.044
1.11E-01,0.052
1.11E-01,0.04
1.12E-01,0.032
1.12E-01,0.008
1.12E-01,-0.024
1.12E-01,-0.032
1.12E-01,-0.048
1.13E-01,-0.064
1.13E-01,-0.072
1.13E-01,-0.064
1.13E-01,-0.076
1.13E-01,-0.08
1.14E-01,-0.08
1.14E-01,-0.088
1.14E-01,-0.092
1.14E-01,-0.084
1.14E-01,-0.076
1.15E-01,-0.088
1.15E-01,-0.096
1.15E-01,-0.084
1.15E-01,-0.096
1.15E-01,-0.1
1.16E-01,-0.092
1.16E-01,-0.092
1.16E-01,-0.088
1.16E-01,-0.072
1.16E-01,-0.08
1.17E-01,-0.084
1.17E-01,-0.072
1.17E-01,-0.072
1.17E-01,-0.064
1.17E-01,-0.06
1.18E-01,-0.068
1.18E-01,-0.056
1.18E-01,-0.064
1.18E-01,-0.076
1.18E-01,-0.064
1.19E-01,-0.052
1.19E-01,-0.06
1.19E-01,-0.06
1.19E-01,-0.048
1.19E-01,-0.036
1.20E-01,-0.008
1.20E-01,-0.012
1.20E-01,-0.004
1.20E-01,0.02
1.20E-01,0.028
1.21E-01,0.052
1.21E-01,0.032
1.21E-01,0.052
1.21E-01,0.064
1.21E-01,0.06
1.22E-01,0.072
1.22E-01,0.076
1.22E-01,0.096
1.22E-01,0.096
1.22E-01,0.096
1.23E-01,0.088
1.23E-01,0.1
1.23E-01,0.092
1.23E-01,0.088
1.23E-01,0.092
1.24E-01,0.076
1.24E-01,0.08
1.24E-01,0.08
1.24E-01,0.104
1.24E-01,0.104
1.25E-01,0.088
1.25E-01,0.096
1.25E-01,0.112
1.25E-01,0.132
1.25E-01,0.124
1.26E-01,0.12
1.26E-01,0.124
1.26E-01,0.12
1.26E-01,0.136
1.26E-01,0.112
1.27E-01,0.108
1.27E-01,0.1
1.27E-01,0.092
1.27E-01,0.076
1.27E-01,0.056
1.28E-01,0.064
1.28E-01,0.04
1.28E-01,0.032
1.28E-01,0.028
1.28E-01,0.02
1.29E-01,0.016
1.29E-01,0.012
1.29E-01,0
1.29E-01,-0.008
1.29E-01,-0.016
1.30E-01,-0.028
1.30E-01,-0.044
1.30E-01,-0.052
1.30E-01,-0.068
1.30E-01,-0.084
1.31E-01,-0.088
1.31E-01,-0.116
1.31E-01,-0.112
1.31E-01,-0.112
1.31E-01,-0.148
1.32E-01,-0.152
1.32E-01,-0.168
1.32E-01,-0.2
1.32E-01,-0.212
1.32E-01,-0.248
1.33E-01,-0.268
1.33E-01,-0.284
1.33E-01,-0.292
1.33E-01,-0.304
1.33E-01,-0.32
1.34E-01,-0.312
1.34E-01,-0.308
1.34E-01,-0.288
1.34E-01,-0.276
1.34E-01,-0.288
1.35E-01,-0.26
1.35E-01,-0.252
1.35E-01,-0.244
1.35E-01,-0.232
1.35E-01,-0.248
1.36E-01,-0.22
1.36E-01,-0.216
1.36E-01,-0.224
1.36E-01,-0.212
1.36E-01,-0.212
1.37E-01,-0.212
1.37E-01,-0.184
1.37E-01,-0.212
1.37E-01,-0.2
1.37E-01,-0.188
1.38E-01,-0.176
1.38E-01,-0.188
1.38E-01,-0.184
1.38E-01,-0.188
1.38E-01,-0.188
1.39E-01,-0.156
1.39E-01,-0.176
1.39E-01,-0.164
1.39E-01,-0.172
1.39E-01,-0.184
1.40E-01,-0.176
1.40E-01,-0.18
1.40E-01,-0.196
1.40E-01,-0.188
1.40E-01,-0.192
1.41E-01,-0.184
1.41E-01,-0.204
1.41E-01,-0.208
1.41E-01,-0.216
1.41E-01,-0.236
1.42E-01,-0.228
1.42E-01,-0.236
1.42E-01,-0.256
1.42E-01,-0.264
1.42E-01,-0.276
1.43E-01,-0.296
1.43E-01,-0.324
1.43E-01,-0.336
1.43E-01,-0.356
1.43E-01,-0.368
1.44E-01,-0.408
1.44E-01,-0.44
1.44E-01,-0.464
1.44E-01,-0.504
1.44E-01,-0.54
1.45E-01,-0.564
1.45E-01,-0.588
1.45E-01,-0.62
1.45E-01,-0.644
1.45E-01,-0.66
1.46E-01,-0.676
1.46E-01,-0.692
1.46E-01,-0.704
1.46E-01,-0.732
1.46E-01,-0.756
1.47E-01,-0.744
1.47E-01,-0.776
1.47E-01,-0.792
1.47E-01,-0.812
1.47E-01,-0.82
1.48E-01,-0.836
1.48E-01,-0.86
1.48E-01,-0.892
1.48E-01,-0.896
1.48E-01,-0.896
1.49E-01,-0.896
1.49E-01,-0.924
1.49E-01,-0.924
1.49E-01,-0.896
1.49E-01,-0.896
1.50E-01,-0.876
1.50E-01,-0.872
1.50E-01,-0.868
1.50E-01,-0.844
1.50E-01,-0.852
1.51E-01,-0.852
1.51E-01,-0.848
1.51E-01,-0.86
1.51E-01,-0.852
1.51E-01,-0.856
1.52E-01,-0.836
1.52E-01,-0.84
1.52E-01,-0.812
1.52E-01,-0.776
1.52E-01,-0.756
1.53E-01,-0.744
1.53E-01,-0.716
1.53E-01,-0.696
1.53E-01,-0.66
1.53E-01,-0.652
1.54E-01,-0.656
1.54E-01,-0.644
1.54E-01,-0.624
1.54E-01,-0.62
1.54E-01,-0.628
1.55E-01,-0.604
1.55E-01,-0.592
1.55E-01,-0.588
1.55E-01,-0.576
1.55E-01,-0.58
1.56E-01,-0.56
1.56E-01,-0.536
1.56E-01,-0.532
1.56E-01,-0.512
1.56E-01,-0.48
1.57E-01,-0.448
1.57E-01,-0.412
1.57E-01,-0.396
1.57E-01,-0.36
1.57E-01,-0.336
1.58E-01,-0.32
1.58E-01,-0.276
1.58E-01,-0.256
1.58E-01,-0.252
1.58E-01,-0.228
1.59E-01,-0.2
1.59E-01,-0.196
1.59E-01,-0.18
1.59E-01,-0.184
1.59E-01,-0.184
1.60E-01,-0.164
1.60E-01,-0.156
1.60E-01,-0.188
1.60E-01,-0.168
1.60E-01,-0.164
1.61E-01,-0.172
1.61E-01,-0.188
1.61E-01,-0.184
1.61E-01,-0.172
1.61E-01,-0.16
1.62E-01,-0.152
1.62E-01,-0.14
1.62E-01,-0.124
1.62E-01,-0.124
1.62E-01,-0.112
1.63E-01,-0.108
1.63E-01,-0.1
1.63E-01,-0.092
1.63E-01,-0.068
1.63E-01,-0.088
1.64E-01,-0.072
1.64E-01,-0.068
1.64E-01,-0.056
1.64E-01,-0.064
1.64E-01,-0.064
1.65E-01,-0.048
1.65E-01,-0.04
1.65E-01,-0.04
1.65E-01,-0.024
1.65E-01,-0.036
1.66E-01,-0.008
1.66E-01,0.016
1.66E-01,-0.004
1.66E-01,0.008
1.66E-01,0.012
1.67E-01,0.008
1.67E-01,0.008
1.67E-01,0.008
1.67E-01,0.008
1.67E-01,0.016
1.68E-01,0.048
1.68E-01,0.048
1.68E-01,0.048
1.68E-01,0.032
1.68E-01,0.044
1.69E-01,0.056
1.69E-01,0.06
1.69E-01,0.064
1.69E-01,0.064
1.69E-01,0.068
1.70E-01,0.096
1.70E-01,0.104
1.70E-01,0.1
1.70E-01,0.124
1.70E-01,0.132
1.71E-01,0.132
1.71E-01,0.16
1.71E-01,0.172
1.71E-01,0.188
1.71E-01,0.22
1.72E-01,0.232
1.72E-01,0.236
1.72E-01,0.264
1.72E-01,0.28
1.72E-01,0.292
1.73E-01,0.308
1.73E-01,0.328
1.73E-01,0.352
1.73E-01,0.38
1.73E-01,0.404
1.74E-01,0.424
1.74E-01,0.452
1.74E-01,0.488
1.74E-01,0.512
1.74E-01,0.536
1.75E-01,0.568
1.75E-01,0.576
1.75E-01,0.592
1.75E-01,0.624
1.75E-01,0.64
1.76E-01,0.636
1.76E-01,0.644
1.76E-01,0.648
1.76E-01,0.636
1.76E-01,0.64
1.77E-01,0.624
1.77E-01,0.624
1.77E-01,0.62
1.77E-01,0.616
1.77E-01,0.62
1.78E-01,0.632
1.78E-01,0.64
1.78E-01,0.648
1.78E-01,0.664
1.78E-01,0.68
1.79E-01,0.684
1.79E-01,0.704
1.79E-01,0.684
1.79E-01,0.696
1.79E-01,0.696
1.80E-01,0.696
1.80E-01,0.668
1.80E-01,0.656
1.80E-01,0.648
1.80E-01,0.632
1.81E-01,0.62
1.81E-01,0.62
1.81E-01,0.596
1.81E-01,0.584
1.81E-01,0.584
1.82E-01,0.56
1.82E-01,0.56
1.82E-01,0.548
1.82E-01,0.54
1.82E-01,0.536
1.83E-01,0.52
1.83E-01,0.524
1.83E-01,0.528
1.83E-01,0.54
1.83E-01,0.524
1.84E-01,0.532
1.84E-01,0.544
1.84E-01,0.544
1.84E-01,0.56
1.84E-01,0.556
1.85E-01,0.572
1.85E-01,0.556
1.85E-01,0.588
1.85E-01,0.588
1.85E-01,0.576
1.86E-01,0.6
1.86E-01,0.596
1.86E-01,0.588
1.86E-01,0.592
1.86E-01,0.584
1.87E-01,0.572
1.87E-01,0.576
1.87E-01,0.576
1.87E-01,0.548
1.87E-01,0.564
1.88E-01,0.56
1.88E-01,0.556
1.88E-01,0.532
1.88E-01,0.528
1.88E-01,0.5
1.89E-01,0.512
1.89E-01,0.5
1.89E-01,0.472
1.89E-01,0.484
1.89E-01,0.468
1.90E-01,0.468
1.90E-01,0.46
1.90E-01,0.436
1.90E-01,0.452
1.90E-01,0.428
1.91E-01,0.436
1.91E-01,0.42
1.91E-01,0.404
1.91E-01,0.404
1.91E-01,0.388
1.92E-01,0.38
1.92E-01,0.376
1.92E-01,0.364
1.92E-01,0.352
1.92E-01,0.332
1.93E-01,0.316
1.93E-01,0.308
1.93E-01,0.308
1.93E-01,0.304
1.93E-01,0.296
1.94E-01,0.276
1.94E-01,0.248
1.94E-01,0.264
1.94E-01,0.252
1.94E-01,0.248
1.95E-01,0.224
1.95E-01,0.224
1.95E-01,0.212
1.95E-01,0.216
1.95E-01,0.196
1.96E-01,0.192
1.96E-01,0.18
1.96E-01,0.18
1.96E-01,0.164
1.96E-01,0.152
1.97E-01,0.16
1.97E-01,0.164
1.97E-01,0.156
1.97E-01,0.152
1.97E-01,0.16
1.98E-01,0.168
1.98E-01,0.16
1.98E-01,0.16
1.98E-01,0.144
1.98E-01,0.144
1.99E-01,0.148
1.99E-01,0.132
1.99E-01,0.12
1.99E-01,0.128
1.99E-01,0.112
2.00E-01,0.096
2.00E-01,0.112
2.00E-01,0.112
2.00E-01,0.096
2.00E-01,0.1
2.01E-01,0.096
2.01E-01,0.088
2.01E-01,0.088
2.01E-01,0.088
2.01E-01,0.08
2.02E-01,0.072
2.02E-01,0.076
2.02E-01,0.072
2.02E-01,0.088
2.02E-01,0.084
2.03E-01,0.08
2.03E-01,0.076
2.03E-01,0.068
2.03E-01,0.088
2.03E-01,0.092
2.04E-01,0.092
2.04E-01,0.1
2.04E-01,0.112
2.04E-01,0.112
2.04E-01,0.108
2.05E-01,0.112
2.05E-01,0.116
2.05E-01,0.12
2.05E-01,0.132
2.05E-01,0.152
2.06E-01,0.18
2.06E-01,0.164
2.06E-01,0.192
2.06E-01,0.184
2.06E-01,0.18
2.07E-01,0.196
2.07E-01,0.192
2.07E-01,0.172
2.07E-01,0.176
2.07E-01,0.164
2.08E-01,0.156
2.08E-01,0.136
2.08E-01,0.112
2.08E-01,0.084
2.08E-01,0.06
2.09E-01,0.04
2.09E-01,0.032
2.09E-01,0.008
2.09E-01,-0.008
2.09E-01,-0.024
2.10E-01,-0.028
2.10E-01,-0.036
2.10E-01,-0.036
2.10E-01,-0.068
2.10E-01,-0.064
2.11E-01,-0.052
2.11E-01,-0.076
2.11E-01,-0.088
2.11E-01,-0.072
2.11E-01,-0.068
2.12E-01,-0.076
2.12E-01,-0.084
2.12E-01,-0.08
2.12E-01,-0.072
2.12E-01,-0.052
2.13E-01,-0.056
2.13E-01,-0.048
2.13E-01,-0.02
2.13E-01,0.004
2.13E-01,0.004
2.14E-01,0.008
2.14E-01,0.008
2.14E-01,0.02
2.14E-01,0.016
2.14E-01,0.012
2.15E-01,0.028
2.15E-01,0.04
2.15E-01,0.036
2.15E-01,0.028
2.15E-01,0.012
2.16E-01,0.008
2.16E-01,0.008
2.16E-01,-0.008
2.16E-01,-0.02
2.16E-01,-0.008
2.17E-01,0.004
2.17E-01,-0.02
2.17E-01,-0.036
2.17E-01,-0.032
2.17E-01,-0.048
2.18E-01,-0.06
2.18E-01,-0.06
2.18E-01,-0.048
2.18E-01,-0.06
2.18E-01,-0.068
2.19E-01,-0.048
2.19E-01,-0.048
2.19E-01,-0.044
2.19E-01,-0.024
2.19E-01,-0.012
2.20E-01,-0.024
2.20E-01,-0.02
2.20E-01,-0.02
2.20E-01,-0.02
2.20E-01,-0.02
2.21E-01,-0.028
2.21E-01,-0.024
2.21E-01,-0.028
2.21E-01,-0.028
2.21E-01,-0.032
2.22E-01,-0.02
2.22E-01,-0.024
2.22E-01,-0.024
2.22E-01,-0.024
2.22E-01,-0.04
2.23E-01,-0.032
2.23E-01,-0.04
2.23E-01,-0.02
2.23E-01,-0.02
2.23E-01,-0.036
2.24E-01,-0.008
2.24E-01,-0.012
2.24E-01,-0.004
2.24E-01,0.004
2.24E-01,-0.004
2.25E-01,0.008
2.25E-01,0.012
2.25E-01,0.024
2.25E-01,0.032
2.25E-01,0.04
2.26E-01,0.04
2.26E-01,0.048
2.26E-01,0.04
2.26E-01,0.056
2.26E-01,0.052
2.27E-01,0.04
2.27E-01,0.04
2.27E-01,0.032
2.27E-01,0.008
2.27E-01,0.004
2.28E-01,-0.012
2.28E-01,0.004
2.28E-01,0
2.28E-01,0
2.28E-01,-0.008
2.29E-01,0.004
2.29E-01,0.004
2.29E-01,-0.02
2.29E-01,-0.02
2.29E-01,-0.028
2.30E-01,-0.032
2.30E-01,-0.04
2.30E-01,-0.052
2.30E-01,-0.06
2.30E-01,-0.052
2.31E-01,-0.068
2.31E-01,-0.076
2.31E-01,-0.06
2.31E-01,-0.06
2.31E-01,-0.052
2.32E-01,-0.072
2.32E-01,-0.08
2.32E-01,-0.068
2.32E-01,-0.084
2.32E-01,-0.1
2.33E-01,-0.116
2.33E-01,-0.104
2.33E-01,-0.136
2.33E-01,-0.124
2.33E-01,-0.12
2.34E-01,-0.148
2.34E-01,-0.144
2.34E-01,-0.164
2.34E-01,-0.156
2.34E-01,-0.172
2.35E-01,-0.156
2.35E-01,-0.164
2.35E-01,-0.16
2.35E-01,-0.168
2.35E-01,-0.176
2.36E-01,-0.184
2.36E-01,-0.168
2.36E-01,-0.172
2.36E-01,-0.172
2.36E-01,-0.144
2.37E-01,-0.152
2.37E-01,-0.124
2.37E-01,-0.132
2.37E-01,-0.12
2.37E-01,-0.124
2.38E-01,-0.1
2.38E-01,-0.1
2.38E-01,-0.092
2.38E-01,-0.08
2.38E-01,-0.072
2.39E-01,-0.056
2.39E-01,-0.064
2.39E-01,-0.072
2.39E-01,-0.072
2.39E-01,-0.06
2.40E-01,-0.044
2.40E-01,-0.04
2.40E-01,-0.052
2.40E-01,-0.012
2.40E-01,-0.02
2.41E-01,-0.032
2.41E-01,-0.032
2.41E-01,-0.024
2.41E-01,-0.02
2.41E-01,-0.02
2.42E-01,-0.016
2.42E-01,-0.016
2.42E-01,-0.016
2.42E-01,-0.008
2.42E-01,-0.02
2.43E-01,-0.016
2.43E-01,-0.016
2.43E-01,-0.012
2.43E-01,-0.012
2.43E-01,-0.016
2.44E-01,-0.008
2.44E-01,-0.036
2.44E-01,-0.044
2.44E-01,-0.024
2.44E-01,-0.04
2.45E-01,-0.032
2.45E-01,-0.04
2.45E-01,-0.036
2.45E-01,-0.044
2.45E-01,-0.032
2.46E-01,-0.04
2.46E-01,-0.028
2.46E-01,-0.016
2.46E-01,-0.036
2.46E-01,-0.036
2.47E-01,-0.04
2.47E-01,-0.036
2.47E-01,-0.028
2.47E-01,-0.048
2.47E-01,-0.052
2.48E-01,-0.044
2.48E-01,-0.052
2.48E-01,-0.076
2.48E-01,-0.076
2.48E-01,-0.092
2.49E-01,-0.1
2.49E-01,-0.112
2.49E-01,-0.132
2.49E-01,-0.144
2.49E-01,-0.16
2.50E-01,-0.172
2.50E-01,-0.188
2.50E-01,-0.196
2.50E-01,-0.196
2.50E-01,-0.192
2.51E-01,-0.2
2.51E-01,-0.176
2.51E-01,-0.168
2.51E-01,-0.168
2.51E-01,-0.16
2.52E-01,-0.164
2.52E-01,-0.152
2.52E-01,-0.116
2.52E-01,-0.124
2.52E-01,-0.112
2.53E-01,-0.088
2.53E-01,-0.056
2.53E-01,-0.052
2.53E-01,-0.032
2.53E-01,-0.016
2.54E-01,0
2.54E-01,0.004
2.54E-01,0.024
2.54E-01,0.016
2.54E-01,0.028
2.55E-01,0.04
2.55E-01,0.04
2.55E-01,0.04
2.55E-01,0.052
2.55E-01,0.056
2.56E-01,0.06
2.56E-01,0.076
2.56E-01,0.06
2.56E-01,0.072
2.56E-01,0.08
2.57E-01,0.1
2.57E-01,0.128
2.57E-01,0.124
2.57E-01,0.12
2.57E-01,0.148
2.58E-01,0.152
2.58E-01,0.176
2.58E-01,0.164
2.58E-01,0.172
2.58E-01,0.192
2.59E-01,0.18
2.59E-01,0.172
2.59E-01,0.168
2.59E-01,0.164
2.59E-01,0.152
2.60E-01,0.144
2.60E-01,0.136
2.60E-01,0.132
2.60E-01,0.136
2.60E-01,0.12
2.61E-01,0.12
2.61E-01,0.12
2.61E-01,0.092
2.61E-01,0.072
2.61E-01,0.076
2.62E-01,0.064
2.62E-01,0.048
2.62E-01,0.044
2.62E-01,0.044
2.62E-01,0.024
2.63E-01,0.032
2.63E-01,0.012
2.63E-01,0.004
2.63E-01,0.028
2.63E-01,0
2.64E-01,0.008
2.64E-01,0.008
2.64E-01,0.012
2.64E-01,0.004
2.64E-01,0.012
2.65E-01,-0.012
2.65E-01,-0.016
2.65E-01,-0.016
2.65E-01,-0.028
2.65E-01,-0.04
2.66E-01,-0.044
2.66E-01,-0.056
2.66E-01,-0.076
2.66E-01,-0.096
2.66E-01,-0.124
2.67E-01,-0.124
2.67E-01,-0.14
2.67E-01,-0.152
2.67E-01,-0.16
2.67E-01,-0.16
2.68E-01,-0.148
2.68E-01,-0.164
2.68E-01,-0.172
2.68E-01,-0.168
2.68E-01,-0.184
2.69E-01,-0.176
2.69E-01,-0.172
2.69E-01,-0.176
2.69E-01,-0.18
2.69E-01,-0.164
2.70E-01,-0.168
2.70E-01,-0.168
2.70E-01,-0.164
2.70E-01,-0.18
2.70E-01,-0.16
2.71E-01,-0.16
2.71E-01,-0.164
2.71E-01,-0.144
2.71E-01,-0.14
2.71E-01,-0.132
2.72E-01,-0.128
2.72E-01,-0.108
2.72E-01,-0.076
2.72E-01,-0.04
2.72E-01,-0.024
2.73E-01,0.008
2.73E-01,0.028
2.73E-01,0.048
2.73E-01,0.084
2.73E-01,0.08
2.74E-01,0.076
2.74E-01,0.092
2.74E-01,0.08
2.74E-01,0.084
2.74E-01,0.076
2.75E-01,0.06
2.75E-01,0.044
2.75E-01,0.032
2.75E-01,0.008
2.75E-01,-0.016
2.76E-01,-0.02
2.76E-01,-0.004
2.76E-01,-0.016
2.76E-01,0
2.76E-01,0.008
2.77E-01,0.012
2.77E-01,0.008
2.77E-01,0.036
2.77E-01,0.024
2.77E-01,0.012
2.78E-01,0.012
2.78E-01,0.008
2.78E-01,-0.008
2.78E-01,-0.024
2.78E-01,-0.056
2.79E-01,-0.076
2.79E-01,-0.06
2.79E-01,-0.092
2.79E-01,-0.104
2.79E-01,-0.12
2.80E-01,-0.12
2.80E-01,-0.128
2.80E-01,-0.156
2.80E-01,-0.164
2.80E-01,-0.148
2.81E-01,-0.176
2.81E-01,-0.196
2.81E-01,-0.18
2.81E-01,-0.192
2.81E-01,-0.192
2.82E-01,-0.188
2.82E-01,-0.192
2.82E-01,-0.168
2.82E-01,-0.172
2.82E-01,-0.172
2.83E-01,-0.164
2.83E-01,-0.16
2.83E-01,-0.136
2.83E-01,-0.128
2.83E-01,-0.128
2.84E-01,-0.12
2.84E-01,-0.096
2.84E-01,-0.084
2.84E-01,-0.084
2.84E-01,-0.068
2.85E-01,-0.048
2.85E-01,-0.032
2.85E-01,-0.028
2.85E-01,-0.044
2.85E-01,-0.024
2.86E-01,-0.032
2.86E-01,-0.032
2.86E-01,-0.04
2.86E-01,-0.06
2.86E-01,-0.06
2.87E-01,-0.056
2.87E-01,-0.064
2.87E-01,-0.076
2.87E-01,-0.088
2.87E-01,-0.084
2.88E-01,-0.092
2.88E-01,-0.08
2.88E-01,-0.052
2.88E-01,-0.044
2.88E-01,-0.032
2.89E-01,0.012
2.89E-01,0.032
2.89E-01,0.064
2.89E-01,0.096
2.89E-01,0.128
2.90E-01,0.132
2.90E-01,0.144
2.90E-01,0.152
2.90E-01,0.168
2.90E-01,0.184
2.91E-01,0.184
2.91E-01,0.184
2.91E-01,0.184
2.91E-01,0.212
2.91E-01,0.208
2.92E-01,0.204
2.92E-01,0.18
2.92E-01,0.192
2.92E-01,0.18
2.92E-01,0.168
2.93E-01,0.144
2.93E-01,0.128
2.93E-01,0.12
2.93E-01,0.112
2.93E-01,0.08
2.94E-01,0.076
2.94E-01,0.064
2.94E-01,0.032
2.94E-01,0.036
2.94E-01,0.024
2.95E-01,0
2.95E-01,0.012
2.95E-01,-0.004
2.95E-01,0
2.95E-01,-0.008
2.96E-01,-0.004
2.96E-01,-0.008
2.96E-01,0
2.96E-01,-0.012
2.96E-01,-0.016
2.97E-01,-0.028
2.97E-01,-0.036
2.97E-01,-0.044
2.97E-01,-0.044
2.97E-01,-0.036
2.98E-01,-0.036
2.98E-01,-0.02
2.98E-01,-0.02
2.98E-01,-0.032
2.98E-01,-0.024
2.99E-01,-0.012
2.99E-01,-0.016
2.99E-01,-0.032
2.99E-01,-0.016
2.99E-01,-0.04
3.00E-01,-0.044
3.00E-01,-0.044
3.00E-01,-0.072
3.00E-01,-0.056
3.00E-01,-0.048
3.01E-01,-0.08
3.01E-01,-0.096
3.01E-01,-0.084
3.01E-01,-0.092
3.01E-01,-0.096
3.02E-01,-0.1
3.02E-01,-0.108
3.02E-01,-0.096
3.02E-01,-0.092
3.02E-01,-0.092
3.03E-01,-0.108
3.03E-01,-0.108
3.03E-01,-0.104
3.03E-01,-0.108
3.03E-01,-0.096
3.04E-01,-0.104
3.04E-01,-0.104
3.04E-01,-0.092
3.04E-01,-0.104
3.04E-01,-0.108
3.05E-01,-0.104
3.05E-01,-0.08
3.05E-01,-0.068
3.05E-01,-0.068
3.05E-01,-0.06
3.06E-01,-0.056
3.06E-01,-0.056
3.06E-01,-0.036
3.06E-01,-0.044
3.06E-01,-0.056
3.07E-01,-0.024
3.07E-01,-0.024
3.07E-01,-0.016
3.07E-01,-0.008
3.07E-01,-0.024
3.08E-01,-0.024
3.08E-01,-0.012
3.08E-01,-0.028
3.08E-01,-0.044
3.08E-01,-0.044
3.09E-01,-0.028
3.09E-01,-0.024
3.09E-01,-0.024
3.09E-01,-0.016
3.09E-01,0
3.10E-01,0.008
3.10E-01,0.02
3.10E-01,0.02
3.10E-01,-0.004
3.10E-01,0.016
3.11E-01,0.016
3.11E-01,0.012
3.11E-01,0.024
3.11E-01,0.016
3.11E-01,-0.008
3.12E-01,0.012
3.12E-01,-0.012
3.12E-01,-0.024
3.12E-01,-0.04
3.12E-01,-0.028
3.13E-01,-0.044
3.13E-01,-0.032
3.13E-01,-0.044
3.13E-01,-0.044
3.13E-01,-0.032
3.14E-01,-0.056
3.14E-01,-0.06
3.14E-01,-0.056
3.14E-01,-0.064
3.14E-01,-0.072
3.15E-01,-0.076
3.15E-01,-0.092
3.15E-01,-0.096
3.15E-01,-0.112
3.15E-01,-0.136
3.16E-01,-0.164
3.16E-01,-0.148
3.16E-01,-0.168
3.16E-01,-0.184
3.16E-01,-0.184
3.17E-01,-0.168
3.17E-01,-0.144
3.17E-01,-0.156
3.17E-01,-0.136
3.17E-01,-0.14
3.18E-01,-0.104
3.18E-01,-0.096
3.18E-01,-0.108
3.18E-01,-0.092
3.18E-01,-0.088
3.19E-01,-0.112
3.19E-01,-0.08
3.19E-01,-0.084
3.19E-01,-0.092
3.19E-01,-0.08
3.20E-01,-0.08
3.20E-01,-0.092
3.20E-01,-0.088
3.20E-01,-0.068
3.20E-01,-0.064
3.21E-01,-0.092
3.21E-01,-0.084
3.21E-01,-0.072
3.21E-01,-0.084
3.21E-01,-0.064
3.22E-01,-0.04
3.22E-01,-0.044
3.22E-01,-0.028
3.22E-01,-0.008
3.22E-01,-0.024
3.23E-01,-0.008
3.23E-01,0.004
3.23E-01,-0.008
3.23E-01,0.012
3.23E-01,0.02
3.24E-01,0.028
3.24E-01,0.024
3.24E-01,0.024
3.24E-01,0.012
3.24E-01,0.016
3.25E-01,0.004
3.25E-01,0.008
3.25E-01,-0.008
3.25E-01,-0.004
3.25E-01,-0.024
3.26E-01,-0.044
3.26E-01,-0.056
3.26E-01,-0.056
3.26E-01,-0.076
3.26E-01,-0.088
3.27E-01,-0.092
3.27E-01,-0.116
3.27E-01,-0.132
3.27E-01,-0.144
3.27E-01,-0.156
3.28E-01,-0.16
3.28E-01,-0.164
3.28E-01,-0.18
3.28E-01,-0.172
3.28E-01,-0.188
3.29E-01,-0.212
3.29E-01,-0.184
3.29E-01,-0.18
3.29E-01,-0.188
3.29E-01,-0.188
3.30E-01,-0.188
3.30E-01,-0.192
3.30E-01,-0.2
3.30E-01,-0.188
3.30E-01,-0.204
3.31E-01,-0.228
3.31E-01,-0.24
3.31E-01,-0.252
3.31E-01,-0.272
3.31E-01,-0.264
3.32E-01,-0.272
3.32E-01,-0.28
3.32E-01,-0.268
3.32E-01,-0.268
3.32E-01,-0.272
3.33E-01,-0.252
3.33E-01,-0.268
3.33E-01,-0.264
3.33E-01,-0.248
3.33E-01,-0.26
3.34E-01,-0.256
3.34E-01,-0.232
3.34E-01,-0.232
3.34E-01,-0.224
3.34E-01,-0.212
3.35E-01,-0.204
3.35E-01,-0.192
3.35E-01,-0.172
3.35E-01,-0.176
3.35E-01,-0.18
3.36E-01,-0.168
3.36E-01,-0.172
3.36E-01,-0.168
3.36E-01,-0.172
3.36E-01,-0.156
3.37E-01,-0.164
3.37E-01,-0.148
3.37E-01,-0.156
3.37E-01,-0.164
3.37E-01,-0.168
3.38E-01,-0.168
3.38E-01,-0.188
3.38E-01,-0.172
3.38E-01,-0.168
3.38E-01,-0.156
3.39E-01,-0.16
3.39E-01,-0.152
3.39E-01,-0.168
3.39E-01,-0.152
3.39E-01,-0.14
3.40E-01,-0.144
3.40E-01,-0.124
3.40E-01,-0.104
3.40E-01,-0.096
3.40E-01,-0.068
3.41E-01,-0.044
3.41E-01,-0.052
3.41E-01,-0.044
3.41E-01,-0.016
3.41E-01,0
3.42E-01,0.016
3.42E-01,0.016
3.42E-01,0.032
3.42E-01,0.036
3.42E-01,0.032
3.43E-01,0.024
3.43E-01,0.028
3.43E-01,0.028
3.43E-01,0.036
3.43E-01,0.052
3.44E-01,0.032
3.44E-01,0.044
3.44E-01,0.048
3.44E-01,0.04
3.44E-01,0.028
3.45E-01,0.028
3.45E-01,0.036
3.45E-01,0.032
3.45E-01,0.016
3.45E-01,0
3.46E-01,-0.012
3.46E-01,-0.004
3.46E-01,-0.024
3.46E-01,-0.028
3.46E-01,-0.052
3.47E-01,-0.056
3.47E-01,-0.06
3.47E-01,-0.076
3.47E-01,-0.092
3.47E-01,-0.08
3.48E-01,-0.088
3.48E-01,-0.08
3.48E-01,-0.084
3.48E-01,-0.072
3.48E-01,-0.072
3.49E-01,-0.048
3.49E-01,-0.044
3.49E-01,-0.048
3.49E-01,-0.032
3.49E-01,-0.016
3.50E-01,-0.028
3.50E-01,-0.016
3.50E-01,-0.028
3.50E-01,-0.012
3.50E-01,0.008
3.51E-01,0
3.51E-01,-0.028
3.51E-01,-0.048
3.51E-01,-0.028
3.51E-01,-0.044
3.52E-01,-0.06
3.52E-01,-0.064
3.52E-01,-0.056
3.52E-01,-0.06
3.52E-01,-0.056
3.53E-01,-0.064
3.53E-01,-0.06
3.53E-01,-0.068
3.53E-01,-0.064
3.53E-01,-0.076
3.54E-01,-0.072
3.54E-01,-0.068
3.54E-01,-0.076
3.54E-01,-0.08
3.54E-01,-0.092
3.55E-01,-0.1
3.55E-01,-0.096
3.55E-01,-0.092
3.55E-01,-0.116
3.55E-01,-0.112
3.56E-01,-0.112
3.56E-01,-0.132
3.56E-01,-0.136
3.56E-01,-0.128
3.56E-01,-0.148
3.57E-01,-0.148
3.57E-01,-0.156
3.57E-01,-0.144
3.57E-01,-0.156
3.57E-01,-0.164
3.58E-01,-0.156
3.58E-01,-0.156
3.58E-01,-0.16
3.58E-01,-0.168
3.58E-01,-0.156
3.59E-01,-0.136
3.59E-01,-0.124
3.59E-01,-0.124
3.59E-01,-0.116
3.59E-01,-0.08
3.60E-01,-0.08
3.60E-01,-0.052
3.60E-01,-0.044
3.60E-01,-0.044
3.60E-01,-0.024
3.61E-01,-0.024
3.61E-01,-0.044
3.61E-01,-0.04
3.61E-01,-0.044
3.61E-01,-0.04
3.62E-01,-0.04
3.62E-01,-0.04
3.62E-01,-0.048
3.62E-01,-0.04
3.62E-01,-0.024
3.63E-01,-0.052
3.63E-01,-0.04
3.63E-01,-0.04
3.63E-01,-0.048
3.63E-01,-0.044
3.64E-01,-0.052
3.64E-01,-0.052
3.64E-01,-0.048
3.64E-01,-0.064
3.64E-01,-0.06
3.65E-01,-0.076
3.65E-01,-0.088
3.65E-01,-0.08
3.65E-01,-0.092
3.65E-01,-0.1
3.66E-01,-0.088
3.66E-01,-0.088
3.66E-01,-0.084
3.66E-01,-0.08
3.66E-01,-0.088
3.67E-01,-0.084
3.67E-01,-0.084
3.67E-01,-0.108
3.67E-01,-0.108
3.67E-01,-0.104
3.68E-01,-0.096
3.68E-01,-0.088
3.68E-01,-0.108
3.68E-01,-0.14
3.68E-01,-0.112
3.69E-01,-0.124
3.69E-01,-0.12
3.69E-01,-0.128
3.69E-01,-0.096
3.69E-01,-0.088
3.70E-01,-0.096
3.70E-01,-0.1
3.70E-01,-0.108
3.70E-01,-0.092
3.70E-01,-0.072
3.71E-01,-0.108
3.71E-01,-0.108
3.71E-01,-0.096
3.71E-01,-0.092
3.71E-01,-0.1
3.72E-01,-0.096
3.72E-01,-0.1
3.72E-01,-0.104
3.72E-01,-0.084
3.72E-01,-0.076
3.73E-01,-0.096
3.73E-01,-0.072
3.73E-01,-0.06
3.73E-01,-0.06
3.73E-01,-0.044
3.74E-01,-0.04
3.74E-01,-0.028
3.74E-01,-0.012
3.74E-01,0
3.74E-01,0.016
3.75E-01,0.012
3.75E-01,0.044
3.75E-01,0.044
3.75E-01,0.036
3.75E-01,0.032
3.76E-01,0.02
3.76E-01,0.028
3.76E-01,0.044
3.76E-01,0.036
3.76E-01,0.028
3.77E-01,0.044
3.77E-01,0.06
3.77E-01,0.064
3.77E-01,0.064
3.77E-01,0.072
3.78E-01,0.088
3.78E-01,0.096
3.78E-01,0.1
3.78E-01,0.104
3.78E-01,0.096
3.79E-01,0.092
3.79E-01,0.088
3.79E-01,0.072
3.79E-01,0.052
3.79E-01,0.04
3.80E-01,0.036
3.80E-01,0.008
3.80E-01,-0.004
3.80E-01,0
3.80E-01,-0.012
3.81E-01,-0.028
3.81E-01,-0.036
3.81E-01,-0.032
3.81E-01,-0.052
3.81E-01,-0.048
3.82E-01,-0.056
3.82E-01,-0.068
3.82E-01,-0.068
3.82E-01,-0.068
3.82E-01,-0.084
3.83E-01,-0.088
3.83E-01,-0.088
3.83E-01,-0.1
3.83E-01,-0.108
3.83E-01,-0.088
3.84E-01,-0.108
3.84E-01,-0.1
3.84E-01,-0.08
3.84E-01,-0.088
3.84E-01,-0.092
3.85E-01,-0.084
3.85E-01,-0.088
3.85E-01,-0.044
3.85E-01,-0.056
3.85E-01,-0.02
3.86E-01,-0.004
3.86E-01,0.016
3.86E-01,0.024
3.86E-01,0.012
3.86E-01,0.04
3.87E-01,0.044
3.87E-01,0.048
3.87E-01,0.044
3.87E-01,0.04
3.87E-01,0.06
3.88E-01,0.048
3.88E-01,0.06
3.88E-01,0.052
3.88E-01,0.056
3.88E-01,0.072
3.89E-01,0.068
3.89E-01,0.052
3.89E-01,0.076
3.89E-01,0.068
3.89E-01,0.084
3.90E-01,0.076
3.90E-01,0.088
3.90E-01,0.088
3.90E-01,0.096
3.90E-01,0.1
3.91E-01,0.108
3.91E-01,0.112
3.91E-01,0.116
3.91E-01,0.116
3.91E-01,0.136
3.92E-01,0.148
3.92E-01,0.164
3.92E-01,0.164
3.92E-01,0.18
3.92E-01,0.192
3.93E-01,0.2
3.93E-01,0.2
3.93E-01,0.208
3.93E-01,0.212
3.93E-01,0.216
3.94E-01,0.2
3.94E-01,0.18
3.94E-01,0.192
3.94E-01,0.192
3.94E-01,0.18
3.95E-01,0.192
3.95E-01,0.208
3.95E-01,0.2
3.95E-01,0.192
3.95E-01,0.168
3.96E-01,0.144
3.96E-01,0.124
3.96E-01,0.104
3.96E-01,0.076
3.96E-01,0.052
3.97E-01,0.028
3.97E-01,0.02
3.97E-01,-0.02
3.97E-01,-0.032
3.97E-01,-0.044
3.98E-01,-0.044
3.98E-01,-0.06
3.98E-01,-0.06
3.98E-01,-0.048
3.98E-01,-0.06
3.99E-01,-0.06
3.99E-01,-0.052
3.99E-01,-0.052
3.99E-01,-0.052
3.99E-01,-0.044
4.00E-01,-0.04
4.00E-01,-0.044
4.00E-01,-0.032
4.00E-01,-0.032
4.00E-01,-0.044
4.01E-01,-0.036
4.01E-01,-0.012
4.01E-01,-0.016
4.01E-01,-0.016
4.01E-01,0
4.02E-01,-0.004
4.02E-01,0.008
4.02E-01,0.012
4.02E-01,0.024
4.02E-01,0.012
4.03E-01,0.008
4.03E-01,0.012
4.03E-01,-0.012
4.03E-01,-0.008
4.03E-01,-0.004
4.04E-01,-0.048
4.04E-01,-0.024
4.04E-01,-0.024
4.04E-01,-0.032
4.04E-01,-0.036
4.05E-01,-0.036
4.05E-01,-0.048
4.05E-01,-0.04
4.05E-01,-0.036
4.05E-01,-0.024
4.06E-01,-0.012
4.06E-01,-0.008
4.06E-01,0
4.06E-01,0.024
4.06E-01,0.036
4.07E-01,0.048
4.07E-01,0.072
4.07E-01,0.096
4.07E-01,0.108
4.07E-01,0.104
4.08E-01,0.124
4.08E-01,0.16
4.08E-01,0.144
4.08E-01,0.156
4.08E-01,0.184
4.09E-01,0.16
4.09E-01,0.176
4.09E-01,0.196
4.09E-01,0.192
4.09E-01,0.2
4.10E-01,0.216
4.10E-01,0.212
4.10E-01,0.22
4.10E-01,0.224
4.10E-01,0.216
4.11E-01,0.24
4.11E-01,0.236
4.11E-01,0.236
4.11E-01,0.236
4.11E-01,0.24
4.12E-01,0.24
4.12E-01,0.224
4.12E-01,0.22
4.12E-01,0.228
4.12E-01,0.212
4.13E-01,0.192
4.13E-01,0.192
4.13E-01,0.188
4.13E-01,0.176
4.13E-01,0.16
4.14E-01,0.132
4.14E-01,0.124
4.14E-01,0.12
4.14E-01,0.088
4.14E-01,0.088
4.15E-01,0.092
4.15E-01,0.08
4.15E-01,0.064
4.15E-01,0.06
4.15E-01,0.032
4.16E-01,0.04
4.16E-01,0.032
4.16E-01,0.016
4.16E-01,0.02
4.16E-01,0.024
4.17E-01,0.012
4.17E-01,0.016
4.17E-01,0
4.17E-01,-0.004
4.17E-01,0.004
4.18E-01,0.02
4.18E-01,0.028
4.18E-01,0.024
4.18E-01,0.044
4.18E-01,0.052
4.19E-01,0.072
4.19E-01,0.088
4.19E-01,0.088
4.19E-01,0.092
4.19E-01,0.12
4.20E-01,0.116
4.20E-01,0.116
4.20E-01,0.132
4.20E-01,0.128
4.20E-01,0.148
4.21E-01,0.136
4.21E-01,0.136
4.21E-01,0.136
4.21E-01,0.148
4.21E-01,0.14
4.22E-01,0.136
4.22E-01,0.152
4.22E-01,0.124
4.22E-01,0.132
4.22E-01,0.136
4.23E-01,0.124
4.23E-01,0.148
4.23E-01,0.148
4.23E-01,0.16
4.23E-01,0.152
4.24E-01,0.152
4.24E-01,0.184
4.24E-01,0.176
4.24E-01,0.16
4.24E-01,0.16
4.25E-01,0.156
4.25E-01,0.152
4.25E-01,0.168
4.25E-01,0.16
4.25E-01,0.148
4.26E-01,0.156
4.26E-01,0.148
4.26E-01,0.168
4.26E-01,0.172
4.26E-01,0.188
4.27E-01,0.192
4.27E-01,0.196
4.27E-01,0.216
4.27E-01,0.24
4.27E-01,0.228
4.28E-01,0.224
4.28E-01,0.232
4.28E-01,0.224
4.28E-01,0.208
4.28E-01,0.208
4.29E-01,0.196
4.29E-01,0.184
4.29E-01,0.172
4.29E-01,0.172
4.29E-01,0.176
4.30E-01,0.18
4.30E-01,0.144
4.30E-01,0.152
4.30E-01,0.14
4.30E-01,0.144
4.31E-01,0.128
4.31E-01,0.12
4.31E-01,0.128
4.31E-01,0.116
4.31E-01,0.096
4.32E-01,0.092
4.32E-01,0.076
4.32E-01,0.048
4.32E-01,0.032
4.32E-01,0.028
4.33E-01,0.012
4.33E-01,0
4.33E-01,0.02
4.33E-01,-0.008
4.33E-01,0
4.34E-01,-0.016
4.34E-01,-0.008
4.34E-01,-0.012
4.34E-01,0
4.34E-01,-0.02
4.35E-01,0.008
4.35E-01,-0.004
4.35E-01,0.024
4.35E-01,0
4.35E-01,0.024
4.36E-01,0.032
4.36E-01,0.04
4.36E-01,0.056
4.36E-01,0.056
4.36E-01,0.052
4.37E-01,0.076
4.37E-01,0.088
4.37E-01,0.064
4.37E-01,0.072
4.37E-01,0.076
4.38E-01,0.076
4.38E-01,0.076
4.38E-01,0.072
4.38E-01,0.06
4.38E-01,0.08
4.39E-01,0.08
4.39E-01,0.064
4.39E-01,0.08
4.39E-01,0.076
4.39E-01,0.088
4.40E-01,0.096
4.40E-01,0.108
4.40E-01,0.132
4.40E-01,0.14
4.40E-01,0.168
4.41E-01,0.176
4.41E-01,0.188
4.41E-01,0.204
4.41E-01,0.204
4.41E-01,0.212
4.42E-01,0.216
4.42E-01,0.216
4.42E-01,0.212
4.42E-01,0.2
4.42E-01,0.208
4.43E-01,0.204
4.43E-01,0.176
4.43E-01,0.204
4.43E-01,0.208
4.43E-01,0.184
4.44E-01,0.192
4.44E-01,0.188
4.44E-01,0.172
4.44E-01,0.18
4.44E-01,0.152
4.45E-01,0.136
4.45E-01,0.128
4.45E-01,0.128
4.45E-01,0.108
4.45E-01,0.096
4.46E-01,0.092
4.46E-01,0.096
4.46E-01,0.088
4.46E-01,0.076
4.46E-01,0.084
4.47E-01,0.088
4.47E-01,0.088
4.47E-01,0.092
4.47E-01,0.088
4.47E-01,0.104
4.48E-01,0.104
4.48E-01,0.108
4.48E-01,0.104
4.48E-01,0.108
4.48E-01,0.112
4.49E-01,0.112
4.49E-01,0.092
4.49E-01,0.104
4.49E-01,0.096
4.49E-01,0.088
4.50E-01,0.064
4.50E-01,0.052
4.50E-01,0.04
4.50E-01,0.024
4.50E-01,0.004
4.51E-01,-0.004
4.51E-01,-0.02
4.51E-01,-0.024
4.51E-01,-0.016
4.51E-01,-0.02
4.52E-01,-0.016
4.52E-01,-0.024
4.52E-01,-0.016
4.52E-01,-0.004
4.52E-01,0
4.53E-01,0
4.53E-01,0.024
4.53E-01,0.032
4.53E-01,0.036
4.53E-01,0.032
4.54E-01,0.036
4.54E-01,0.028
4.54E-01,0.056
4.54E-01,0.06
4.54E-01,0.06
4.55E-01,0.076
4.55E-01,0.088
4.55E-01,0.108
4.55E-01,0.116
4.55E-01,0.128
4.56E-01,0.148
4.56E-01,0.16
4.56E-01,0.164
4.56E-01,0.16
4.56E-01,0.168
4.57E-01,0.164
4.57E-01,0.148
4.57E-01,0.144
4.57E-01,0.168
4.57E-01,0.18
4.58E-01,0.18
4.58E-01,0.184
4.58E-01,0.2
4.58E-01,0.176
4.58E-01,0.188
4.59E-01,0.184
4.59E-01,0.18
4.59E-01,0.168
4.59E-01,0.168
4.59E-01,0.164
4.60E-01,0.168
4.60E-01,0.16
4.60E-01,0.164
4.60E-01,0.168
4.60E-01,0.176
4.61E-01,0.176
4.61E-01,0.16
4.61E-01,0.168
4.61E-01,0.172
4.61E-01,0.16
4.62E-01,0.168
4.62E-01,0.156
4.62E-01,0.148
4.62E-01,0.152
4.62E-01,0.156
4.63E-01,0.14
4.63E-01,0.136
4.63E-01,0.128
4.63E-01,0.116
4.63E-01,0.112
4.64E-01,0.116
4.64E-01,0.104
4.64E-01,0.112
4.64E-01,0.1
4.64E-01,0.08
4.65E-01,0.1
4.65E-01,0.092
4.65E-01,0.08
4.65E-01,0.076
4.65E-01,0.06
4.66E-01,0.06
4.66E-01,0.044
4.66E-01,0.028
4.66E-01,0.004
4.66E-01,0.036
4.67E-01,0
4.67E-01,-0.004
4.67E-01,-0.016
4.67E-01,-0.02
4.67E-01,-0.028
4.68E-01,-0.032
4.68E-01,-0.024
4.68E-01,-0.024
4.68E-01,-0.02
4.68E-01,-0.012
4.69E-01,-0.016
4.69E-01,-0.004
4.69E-01,0.024
4.69E-01,0.024
4.69E-01,0.028
4.70E-01,0.052
4.70E-01,0.044
4.70E-01,0.064
4.70E-01,0.072
4.70E-01,0.072
4.71E-01,0.072
4.71E-01,0.1
4.71E-01,0.08
4.71E-01,0.096
4.71E-01,0.084
4.72E-01,0.088
4.72E-01,0.096
4.72E-01,0.128
4.72E-01,0.12
4.72E-01,0.112
4.73E-01,0.128
4.73E-01,0.14
4.73E-01,0.128
4.73E-01,0.132
4.73E-01,0.128
4.74E-01,0.12
4.74E-01,0.116
4.74E-01,0.104
4.74E-01,0.096
4.74E-01,0.076
4.75E-01,0.092
4.75E-01,0.076
4.75E-01,0.072
4.75E-01,0.06
4.75E-01,0.06
4.76E-01,0.052
4.76E-01,0.072
4.76E-01,0.052
4.76E-01,0.056
4.76E-01,0.072
4.77E-01,0.08
4.77E-01,0.068
4.77E-01,0.076
4.77E-01,0.076
4.77E-01,0.084
4.78E-01,0.084
4.78E-01,0.096
4.78E-01,0.088
4.78E-01,0.08
4.78E-01,0.092
4.79E-01,0.072
4.79E-01,0.06
4.79E-01,0.052
4.79E-01,0.024
4.79E-01,0.008
4.80E-01,-0.02
4.80E-01,-0.048
4.80E-01,-0.068
4.80E-01,-0.064
4.80E-01,-0.104
4.81E-01,-0.112
4.81E-01,-0.116
4.81E-01,-0.128
4.81E-01,-0.136
4.81E-01,-0.144
4.82E-01,-0.152
4.82E-01,-0.128
4.82E-01,-0.12
4.82E-01,-0.124
4.82E-01,-0.128
4.83E-01,-0.116
4.83E-01,-0.112
4.83E-01,-0.112
4.83E-01,-0.116
4.83E-01,-0.112
4.84E-01,-0.116
4.84E-01,-0.096
4.84E-01,-0.096
4.84E-01,-0.112
4.84E-01,-0.092
4.85E-01,-0.096
4.85E-01,-0.108
4.85E-01,-0.104
4.85E-01,-0.104
4.85E-01,-0.08
4.86E-01,-0.096
4.86E-01,-0.096
4.86E-01,-0.084
4.86E-01,-0.08
4.86E-01,-0.052
4.87E-01,-0.06
4.87E-01,-0.06
4.87E-01,-0.02
4.87E-01,-0.016
4.87E-01,0.008
4.88E-01,0.012
4.88E-01,0.02
4.88E-01,0.032
4.88E-01,0.056
4.88E-01,0.064
4.89E-01,0.084
4.89E-01,0.084
4.89E-01,0.096
4.89E-01,0.1
4.89E-01,0.112
4.90E-01,0.108
4.90E-01,0.108
4.90E-01,0.108
4.90E-01,0.124
4.90E-01,0.112
4.91E-01,0.128
4.91E-01,0.136
4.91E-01,0.152
4.91E-01,0.16
4.91E-01,0.16
4.92E-01,0.148
4.92E-01,0.164
4.92E-01,0.18
4.92E-01,0.188
4.92E-01,0.176
4.93E-01,0.188
4.93E-01,0.188
4.93E-01,0.188
4.93E-01,0.18
4.93E-01,0.164
4.94E-01,0.152
4.94E-01,0.148
4.94E-01,0.152
4.94E-01,0.128
4.94E-01,0.112
4.95E-01,0.092
4.95E-01,0.068
4.95E-01,0.064
4.95E-01,0.048
4.95E-01,0.04
4.96E-01,0.028
4.96E-01,0.028
4.96E-01,0.024
4.96E-01,0.004
4.96E-01,-0.016
4.97E-01,-0.028
4.97E-01,-0.032
4.97E-01,-0.044
4.97E-01,-0.068
4.97E-01,-0.064
4.98E-01,-0.072
4.98E-01,-0.088
4.98E-01,-0.06
4.98E-01,-0.088
4.98E-01,-0.072
4.99E-01,-0.076
4.99E-01,-0.076
4.99E-01,-0.072
4.99E-01,-0.064
4.99E-01,-0.08
5.00E-01,-0.08
5.00E-01,-0.072
5.00E-01,-0.06
5.00E-01,-0.068
5.00E-01,-0.06
5.01E-01,-0.056
5.01E-01,-0.044
5.01E-01,-0.052
5.01E-01,-0.044
5.01E-01,-0.052
5.02E-01,-0.04
5.02E-01,-0.024
5.02E-01,-0.016
5.02E-01,-0.024
5.02E-01,-0.012
5.03E-01,0.008
5.03E-01,0
5.03E-01,0.008
5.03E-01,0.004
5.03E-01,0
5.04E-01,0.012
5.04E-01,0
5.04E-01,-0.004
5.04E-01,0.004
5.04E-01,0
5.05E-01,-0.004
5.05E-01,-0.008
5.05E-01,-0.016
5.05E-01,0.008
5.05E-01,0.012
5.06E-01,0.04
5.06E-01,0.048
5.06E-01,0.064
5.06E-01,0.072
5.06E-01,0.072
5.07E-01,0.092
5.07E-01,0.096
5.07E-01,0.088
5.07E-01,0.096
5.07E-01,0.112
5.08E-01,0.104
5.08E-01,0.084
5.08E-01,0.08
5.08E-01,0.08
5.08E-01,0.072
5.09E-01,0.064
5.09E-01,0.064
5.09E-01,0.068
5.09E-01,0.072
5.09E-01,0.048
5.10E-01,0.06
5.10E-01,0.052
5.10E-01,0.06
5.10E-01,0.048
5.10E-01,0.052
5.11E-01,0.056
5.11E-01,0.072
5.11E-01,0.068
5.11E-01,0.08
5.11E-01,0.076
5.12E-01,0.064
